match_id,player_folder,window_start,window_end,heart_rate_heart_rate_mean,heart_rate_heart_rate_std,heart_rate_heart_rate_min,heart_rate_heart_rate_max,heart_rate_heart_rate_median,heart_rate_heart_rate_range,heart_rate_heart_rate_p25,heart_rate_heart_rate_p75,heart_rate_heart_rate_trend,gsr_gsr_mean,gsr_gsr_std,gsr_gsr_min,gsr_gsr_max,gsr_gsr_median,gsr_gsr_range,gsr_gsr_p25,gsr_gsr_p75,gsr_gsr_trend,emg_emg_right_hand_mean,emg_emg_right_hand_std,emg_emg_right_hand_min,emg_emg_right_hand_max,emg_emg_right_hand_median,emg_emg_right_hand_range,emg_emg_right_hand_p25,emg_emg_right_hand_p75,emg_emg_right_hand_trend,emg_emg_left_hand_mean,emg_emg_left_hand_std,emg_emg_left_hand_min,emg_emg_left_hand_max,emg_emg_left_hand_median,emg_emg_left_hand_range,emg_emg_left_hand_p25,emg_emg_left_hand_p75,emg_emg_left_hand_trend,eye_tracker_gaze_movement_mean,eye_tracker_gaze_movement_std,eye_tracker_gaze_movement_min,eye_tracker_gaze_movement_max,eye_tracker_gaze_movement_median,eye_tracker_gaze_movement_range,eye_tracker_gaze_movement_p25,eye_tracker_gaze_movement_p75,eye_tracker_gaze_movement_trend,eye_tracker_pupil_diameter_mean,eye_tracker_pupil_diameter_std,eye_tracker_pupil_diameter_min,eye_tracker_pupil_diameter_max,eye_tracker_pupil_diameter_median,eye_tracker_pupil_diameter_range,eye_tracker_pupil_diameter_p25,eye_tracker_pupil_diameter_p75,eye_tracker_pupil_diameter_trend,facial_skin_temperature_facial_skin_temperature_mean,facial_skin_temperature_facial_skin_temperature_std,facial_skin_temperature_facial_skin_temperature_min,facial_skin_temperature_facial_skin_temperature_max,facial_skin_temperature_facial_skin_temperature_median,facial_skin_temperature_facial_skin_temperature_range,facial_skin_temperature_facial_skin_temperature_p25,facial_skin_temperature_facial_skin_temperature_p75,facial_skin_temperature_facial_skin_temperature_trend,spo2_spo2_mean,spo2_spo2_std,spo2_spo2_min,spo2_spo2_max,spo2_spo2_median,spo2_spo2_range,spo2_spo2_p25,spo2_spo2_p75,spo2_spo2_trend,imu_head_rot_x_mean,imu_head_rot_x_std,imu_head_rot_x_min,imu_head_rot_x_max,imu_head_rot_x_median,imu_head_rot_x_range,imu_head_rot_x_p25,imu_head_rot_x_p75,imu_head_rot_x_trend,imu_head_rot_y_mean,imu_head_rot_y_std,imu_head_rot_y_min,imu_head_rot_y_max,imu_head_rot_y_median,imu_head_rot_y_range,imu_head_rot_y_p25,imu_head_rot_y_p75,imu_head_rot_y_trend,imu_head_rot_z_mean,imu_head_rot_z_std,imu_head_rot_z_min,imu_head_rot_z_max,imu_head_rot_z_median,imu_head_rot_z_range,imu_head_rot_z_p25,imu_head_rot_z_p75,imu_head_rot_z_trend,keyboard_buttons_pressed_mean,keyboard_buttons_pressed_std,keyboard_buttons_pressed_min,keyboard_buttons_pressed_max,keyboard_buttons_pressed_median,keyboard_buttons_pressed_range,keyboard_buttons_pressed_p25,keyboard_buttons_pressed_p75,keyboard_buttons_pressed_trend,mouse_mouse_movement_mean,mouse_mouse_movement_std,mouse_mouse_movement_min,mouse_mouse_movement_max,mouse_mouse_movement_median,mouse_mouse_movement_range,mouse_mouse_movement_p25,mouse_mouse_movement_p75,mouse_mouse_movement_trend,mouse_mouse_clicks_mean,mouse_mouse_clicks_std,mouse_mouse_clicks_min,mouse_mouse_clicks_max,mouse_mouse_clicks_median,mouse_mouse_clicks_range,mouse_mouse_clicks_p25,mouse_mouse_clicks_p75,mouse_mouse_clicks_trend,stress_target,group_id,stress_class,stress_baseline,stress_deviation,stress_ratio,stress_state
match_0,player_1,30.0,60.0,74.76236559139785,2.3738148852622065,72.0,78.87096774193549,74.0,6.870967741935488,72.83064516129032,77.20967741935483,0.2072338440561184,22808.2387198712,340.8173287221187,22192.96456744322,23406.754686944856,22833.53771603656,1213.7901195016348,22590.86063267065,23041.39155221885,-0.4166926870572798,8.132002867095313,2.1933627420555277,4.8650668764752165,14.050255704169944,7.937610956444551,9.185188827694729,6.586791896144768,9.141108894383873,-0.0728915153437507,10.065855063504554,1.8199891853827563,6.290912667191188,12.442306395414183,10.348184781386989,6.151393728222995,8.448718200891687,11.628421096998988,0.1633260220821579,1756.6528574004765,822.4320333178757,638.0986862946316,3395.969016351125,1445.869705574877,2757.870330056493,1011.3526014803608,2521.0282960806217,-37.50349967057888,4.980734993082988,0.0873668073579536,4.854581434169645,5.184789565847461,4.969737318791212,0.330208131677816,4.915128269219759,5.032836201386746,0.0015946265949954,35.00736059139785,0.0403712730614096,34.95213225806452,35.123483870967746,34.999676075268816,0.1713516129032228,34.980576478494626,35.027934139784946,-0.0016010533806981,98.45456001935484,0.8470197970809153,97.08841574193548,99.51718838709677,98.85493133870968,2.4287726451612883,97.58725793548386,99.10909553225804,0.0766072321360635,-0.0024851476191899,0.004690429021973,-0.0183819162222883,0.0030799636837376,-0.0012610576717826,0.0214618799060259,-0.0047973341139271,0.0010439976851295,0.0002434579141747,0.0,0.0,0.0,0.0,0.0,0.0,0.0,0.0,0.0,0.0,0.0,0.0,0.0,0.0,0.0,0.0,0.0,0.0,0.19375,0.3092960757914655,0.0,1.0,0.03125,1.0,0.0,0.25,0.0060483870967741,1766.1325772479172,1223.0179432252642,189.3397371544516,4472.461333842046,1407.7940848641565,4283.121596687594,759.8517154624833,2352.700946413461,81.5316686552713,3.3916666666666666,3.0927895534973318,0.0,10.625,2.1875,10.625,0.90625,5.265625,0.2327864293659621,0.293013805734767,match_0_player_1,Lower,0.3089558967741935,-0.01594209103942651,0.9484001075691457,Normal
match_0,player_1,60.0,90.0,77.65913978494625,1.4103990016907986,75.12903225806451,80.74193548387098,77.53225806451613,5.612903225806463,77.0,78.25806451612902,0.0766514765510055,24300.365388933176,552.9058530746263,22903.53445079789,25145.236964701115,24349.94291129509,2241.702513903223,24090.338094899285,24701.047691669777,58.7999473269625,11.589404824347785,4.169030583358356,5.931313926042487,22.20806076954779,10.567554606421638,16.2767468435053,8.118568759132291,14.514565068749766,-0.3350467714200786,10.274205880883692,1.844870804483024,6.793503428121838,15.493570866584244,10.393330617061933,8.700067438462407,8.825213555130944,11.711609250309092,-0.0676600876866713,1662.0261014922246,879.7452150097565,106.80881122783708,3963.965992528376,1541.684522608894,3857.157181300539,1072.968322711848,2134.815975120024,-31.801455038464177,4.7480175623636525,0.1767355504323656,4.490101074061995,5.060848458058344,4.739297681666052,0.5707473839963493,4.597985657718827,4.850598977708016,-0.0152811401362378,35.08015032258064,0.0663178147350402,35.01078064516129,35.222883870967735,35.03776451612903,0.2121032258064445,35.03042822580645,35.1351314516129,0.006906802540456,98.25956328709678,0.8875401552535034,97.05106625806452,99.55478496774194,97.82014124193547,2.5037187096774147,97.49550201612902,99.21628231451612,0.0871986589328627,-0.0001923561357212,0.0030444413165811,-0.0073026721867509,0.0058822605080397,-0.0001779539530771,0.0131849326947906,-0.0013353923504884,0.0018164360823942,5.5545801441302026e-05,0.0,0.0,0.0,0.0,0.0,0.0,0.0,0.0,0.0,0.0,0.0,0.0,0.0,0.0,0.0,0.0,0.0,0.0,0.0645833333333333,0.2005742623624034,0.0,1.0,0.0,1.0,0.0,0.0,-0.0005700778642936,565.4493480056022,222.7856956810789,155.0420727481227,1281.6811793056256,548.4509826304804,1126.6391065575028,457.9771376774846,625.6260496224054,8.315314405648358,3.633333333333333,3.039785377109524,0.0,9.125,3.96875,9.125,0.453125,6.421875,0.0964404894327029,0.3186742338709677,match_0_player_1,Lower,0.30098485125448027,0.017689382616487448,1.058771670875659,Elevated
match_0,player_1,90.0,120.0,75.9,1.0415359265855235,74.35483870967741,78.35483870967741,75.85483870967742,4.0,75.12903225806451,76.27419354838709,-0.019713660339448,24824.93357226301,416.8430527452111,24103.38561427475,25668.413854976126,24768.648300085668,1565.0282407013765,24563.124327218557,25004.24408661273,-33.538707307821305,7.645564958033487,2.0074675274343976,5.2460763927915774,13.1235472631224,7.075845790715972,7.877470870330823,6.0873440485556936,8.57970102281668,-0.0862176519840339,10.614099374705198,0.906600082874472,8.625652841781875,12.995869394177811,10.841717245513468,4.370216552395936,9.862983471092242,11.16760424862313,-0.0557035903420427,1341.117531215049,431.1249145504968,537.5505641329063,2509.6656465372625,1261.143337599038,1972.115082404356,1027.3281994662836,1546.442711422992,-2.3510970310061023,4.886076195388314,0.1782001005396386,4.502106280412383,5.126081042401575,4.919325692622662,0.6239747619891922,4.835272170799885,5.025344360520396,0.0101247454095854,35.257712204301065,0.014388656993417,35.228777419354834,35.284370967741935,35.25978870967741,0.055593548387101,35.24886572580645,35.26815887096774,0.000132967694092,98.32069909354838,0.9994387983291688,96.1565269032258,99.70526496774193,98.51972051612904,3.548738064516129,97.85408554838708,99.13540773387096,-0.0234194461731712,0.0002882397219331,0.005101918691536,-0.0097077962406986,0.0175269215035726,-0.0002189966954376,0.0272347177442712,-0.0025655879531974,0.0014321610423604,-0.000105173453716,0.0,0.0,0.0,0.0,0.0,0.0,0.0,0.0,0.0,0.0,0.0,0.0,0.0,0.0,0.0,0.0,0.0,0.0,0.0,0.0,0.0,0.0,0.0,0.0,0.0,0.0,0.0,1308.9312654023515,378.1514551541054,595.212491730965,2371.956451766984,1285.757527731197,1776.7439600360192,1116.5947911602611,1533.6678472723945,23.29817998789828,6.05,1.3372079120316331,2.25,8.4375,5.84375,6.1875,5.390625,6.90625,-0.0868464961067855,0.3088151419354837,match_0_player_1,Lower,0.3089558967741935,-0.000140754838709789,0.9995444176978675,Elevated
match_0,player_1,120.0,150.0,75.0290322580645,1.8886695036268093,73.0,78.83870967741936,75.11290322580645,5.838709677419359,73.05645161290323,75.94354838709677,0.1832358534572454,25428.71669629404,260.83920344812907,24979.78301451721,25913.11346448612,25340.760774009937,933.3304499689112,25228.0002996188,25671.508920255317,14.853148397757886,6.195794719529967,1.4114113386449834,4.008693941778128,9.432842531190287,5.943070770037725,5.424148589412159,5.147373322324148,6.875240015360983,-0.0454902821674495,10.633632884512112,0.9414033435472878,8.731176239181746,12.482848151062155,10.818001854557716,3.7516719118804094,9.910769079464988,11.393092961326635,0.016911295548784,1245.5311488564737,330.0346060377736,741.888043539133,1831.528007950432,1187.4077283961872,1089.639964411299,965.0907188543284,1568.1899224870965,15.270553405315772,5.060853771970779,0.1628035492849059,4.792274423086711,5.32860309387844,5.08243253249961,0.536328670791729,4.898730638579342,5.197030638984001,-0.0154168068946786,35.2562047311828,0.104996748537383,35.019464516129034,35.52225483870968,35.26233870967742,0.502790322580644,35.24374193548387,35.27543225806451,0.0011065298360177,98.78207036774194,0.7889539162634226,97.1585292580645,99.69038529032258,98.99379791935483,2.5318560322580765,98.2629939193548,99.5051624516129,-0.0703751826760957,0.0018299151718337,0.0040179343122523,-0.0079524554770953,0.0144274876716326,0.0012929338050827,0.0223799431487278,0.0007842503351545,0.0032934274348266,-0.000130926226933,0.0,0.0,0.0,0.0,0.0,0.0,0.0,0.0,0.0,0.0,0.0,0.0,0.0,0.0,0.0,0.0,0.0,0.0,0.19375,0.3159600119740893,0.0,1.0625,0.0,1.0625,0.0,0.25,-0.0146412680756396,1585.33988135933,352.49743933384644,880.2303328510741,2449.6581116197103,1615.4682660228682,1569.4277787686362,1351.015853819496,1835.024188121161,-5.108845555300396,2.1979166666666665,1.204276595328314,0.25,5.1875,1.90625,4.9375,1.234375,2.84375,-0.0999860956618466,0.2586407629032257,match_0_player_1,Lower,0.3088855193548386,-0.050244756451612915,0.837335344963539,Normal
match_0,player_1,150.0,180.0,74.0,2.645947955407729,70.25806451612902,77.87096774193549,73.58064516129033,7.612903225806463,71.08064516129032,76.47580645161291,-0.2835982633033134,26242.99150597113,578.4333204771414,24495.20032234453,26823.90275829401,26439.61875832677,2328.7024359494826,26070.798393281933,26637.638025053016,-11.69227185906644,6.649142287470377,0.9864132102175768,4.919276160503541,9.516837136113296,6.532801787119254,4.597560975609754,5.960173264972636,6.981824559848753,-0.0312720355005997,11.27833978417771,0.6500412024205607,10.441669188404042,13.37507716516371,11.159972462627852,2.933407976759668,10.930822583527146,11.433127037203551,0.0248873481048139,1361.066946350692,466.1307239303912,645.6414465414017,2325.7808256502885,1206.584504310524,1680.1393791088867,1046.9301657364044,1520.8809997577082,3.0956167113185384,4.882678881946914,0.1323506746326255,4.640662606786625,5.198165645187021,4.845804525663977,0.5575030384003954,4.786190307813329,4.987495045093395,0.0036512727264163,35.25232026881721,0.1562620633297929,35.08335483870968,35.542822580645165,35.221326612903226,0.4594677419354838,35.10851612903225,35.34591397849462,-0.017350920257874,98.37620500967742,0.6137756992084874,97.05106625806452,99.1450358064516,98.55707846774192,2.0939695483870797,98.06502291129031,98.82484112096772,0.0563962486418583,0.0002808688036916,0.0044521612260212,-0.0079739297278737,0.0148404673380701,0.00014741197034,0.0228143970659438,-0.0018485614521843,0.002376222442849,0.0001307559600125,0.0,0.0,0.0,0.0,0.0,0.0,0.0,0.0,0.0,0.0,0.0,0.0,0.0,0.0,0.0,0.0,0.0,0.0,0.0,0.0,0.0,0.0,0.0,0.0,0.0,0.0,0.0,1513.061573107555,336.6067172505059,894.4438018758657,2513.878454479642,1499.273121438463,1619.4346526037766,1315.2994960367714,1606.152914781785,2.9307906658228378,1.51875,0.851950886201781,0.125,3.5625,1.5625,3.4375,0.953125,1.9375,0.0212319243604004,0.2626157370967741,match_0_player_1,Lower,0.3088151419354837,-0.0461994048387096,0.8503978640776579,Normal
match_0,player_1,180.0,210.0,73.39462365591399,1.2188166114089969,70.2258064516129,75.0,73.50000000000001,4.774193548387103,72.9758064516129,74.19354838709677,0.0826222684703411,26273.583483205595,621.1809595140808,24666.98877125745,27128.206074387737,26392.59165891558,2461.217303130288,26001.645844468363,26752.373406060746,66.3228079418946,6.190797195635906,0.9101992531213844,4.437413072110161,8.187096774193549,6.005528729073182,3.749683702083388,5.6657826716294455,6.800899503722084,0.0013876012306646,10.845860061347867,1.1014326008442203,8.982926829268292,12.680645161290322,10.820711029070589,3.6977183320220295,9.797333100613,11.90656017369727,0.0304984062892271,1162.2765265776304,328.40830282846264,618.7659552881362,2407.632051465804,1114.5597414284948,1788.866096177668,996.6213707321854,1235.7998066564587,-2.2214813648488376,5.051859274166595,0.1506394258303474,4.794791473126832,5.242093423526899,5.099594103881101,0.4473019504000675,4.883712165990684,5.179500743666055,0.0125646977283255,35.14613207885304,0.0678680759363697,35.05670967741935,35.25017204301075,35.112258064516126,0.1934623655914009,35.09188709677419,35.22252661290322,0.0065004927817036,98.70351875806452,0.3851806366984266,98.09314922580646,99.5500619032258,98.71550762903226,1.4569126774193393,98.42007196774192,98.96528045967742,0.0366152333919391,0.001794489130455,0.0051757165793901,-0.006734766160674,0.0162982321377853,0.0006230325758111,0.0230329982984592,-0.001087575427759,0.0055851467312061,1.7970609994403295e-05,0.0,0.0,0.0,0.0,0.0,0.0,0.0,0.0,0.0,0.0,0.0,0.0,0.0,0.0,0.0,0.0,0.0,0.0,0.2916666666666667,0.3691676072222781,0.0,1.125,0.125,1.125,0.0,0.5,-0.000139043381535,1883.5348252686852,552.4698332662626,1028.6616221903682,3248.427226816716,1811.5535731808293,2219.765604626348,1414.724926344252,2269.542727102664,8.805068421776813,2.7729166666666667,1.2881150769201055,0.1875,5.125,2.65625,4.9375,1.953125,3.828125,-0.0816045606229144,0.2673253306451613,match_0_player_1,Lower,0.3009144738351254,-0.03358914318996409,0.8883764454335686,Normal
match_0,player_1,210.0,240.0,75.0752688172043,2.494702445919266,72.09677419354838,81.93548387096774,74.5967741935484,9.83870967741936,73.0,75.91935483870968,0.2557393519681353,26776.21457968074,313.8866608943015,26299.342489639712,27238.542959812687,26739.691008212463,939.2004701729747,26484.926140947,27080.955977973263,-2.0323520086950904,5.761341405774923,0.9445733548381792,4.205536726583147,8.212431156569629,5.5143862595573845,4.006894429986482,5.071575426605914,6.04271243115657,0.0113215415691459,11.203446071805631,0.7173181869261092,9.790091589501504,12.875059008654604,11.282234864532269,3.0849674191531005,10.727559437349957,11.694298603966187,-0.0191822677217326,1163.3573189850233,354.5142302159041,659.3767305096674,1961.779249277024,1068.056004441253,1302.4025187673562,905.9596874361428,1431.717743208373,20.766720361391965,5.086800269919356,0.0958659804610252,4.891933246808594,5.260691001041548,5.109450279806802,0.3687577542329538,5.000789211263173,5.166138121466506,-0.0037443776907782,35.37321458781362,0.0429683919889422,35.26391397849463,35.433290322580646,35.379451612903225,0.1693763440860181,35.35013064516129,35.406435483870965,0.0018083440381774,98.97209823548388,0.4210801121520549,98.16816222580646,99.6994069032258,99.02499396774192,1.5312446774193518,98.71572279838708,99.27623073387096,0.0088446736876074,-0.0001147870216071,0.0051797147365583,-0.0152478889557486,0.0098467187926489,-1.709987315918989e-05,0.0250946077483975,-0.0013865475223169,0.0025977329526894,4.811811447345679e-05,0.0,0.0,0.0,0.0,0.0,0.0,0.0,0.0,0.0,0.0,0.0,0.0,0.0,0.0,0.0,0.0,0.0,0.0,0.0895833333333333,0.216315821710346,0.0,1.0,0.0,1.0,0.0,0.0,0.0044354838709677,1964.9287724338208,585.4528218311239,965.0601073208628,3441.449953856869,1739.6307883085474,2476.389846536006,1509.9919136896008,2415.8455433917597,41.620202131885385,3.252083333333333,1.0794582135137154,0.5,5.1875,3.4375,4.6875,2.640625,3.859375,-0.0260706340378198,0.262403414516129,match_0_player_1,Lower,0.293013805734767,-0.03061039121863801,0.8955325973741107,Normal
match_0,player_1,240.0,270.0,77.4204301075269,3.0689552831924245,74.0,82.83870967741936,76.12903225806451,8.83870967741936,74.58064516129033,80.0241935483871,-0.3295633140765748,26673.421404615598,450.54486034839465,25737.45834879107,27358.18964317623,26808.09313127618,1620.7312943851575,26284.45299658065,27008.865350946733,13.333863945507936,6.450459657485621,1.9821343318486215,4.459952793076318,12.003184449958644,5.960267505900864,7.543231656882326,5.1879769866247045,6.39534020758942,-0.1243022406617154,10.310375373817545,1.1697857203082027,8.360836409852933,12.79608575924469,10.239310067063805,4.435249349391757,9.23568510561036,11.193243509047992,-0.0731420223223603,1247.311370852912,391.19689446602,617.6718426244555,2084.23116891021,1138.9294687483662,1466.5593262857542,988.6421121350112,1452.7921325786165,-17.672121153043875,5.004277821960818,0.1937426130845627,4.71955921441696,5.480927391791657,4.9466244612478665,0.7613681773746972,4.845738288614948,5.119036361698594,-0.0096101740707289,35.29818021505376,0.0401622754358045,35.23715806451612,35.35114516129032,35.30235645161291,0.1139870967741956,35.25821774193548,35.339065322580645,-0.0037884330259433,99.18563003548388,0.516972224618487,97.56392796774192,99.78182341935482,99.3259560483871,2.217895451612904,99.06673653225803,99.51258001612902,-0.0426770373318043,0.001995044021547,0.0039221462099582,-0.006386682461679,0.0131749647882776,0.0023511527212761,0.0195616472499566,0.0002288224909655,0.0042652342207683,-3.669375590784325e-05,0.0,0.0,0.0,0.0,0.0,0.0,0.0,0.0,0.0,0.0,0.0,0.0,0.0,0.0,0.0,0.0,0.0,0.0,0.0708333333333333,0.2000867867257161,0.0,1.0,0.0,1.0,0.0,0.0,-0.0026140155728587,1963.0975271169036,991.4604872207124,869.1196024314681,4548.242215364595,1604.2267919288415,3679.122612933127,1179.9984340018418,2603.821727959058,-56.10425127603433,3.841666666666667,1.3545576358682154,1.0625,6.25,4.28125,5.1875,2.65625,4.890625,0.0013348164627363,0.284407179032258,match_0_player_1,Lower,0.28016956818996414,0.0042376108422938485,1.0151251646268042,Elevated
match_0,player_1,270.0,300.0,75.73333333333335,1.132220792001575,74.0,77.7741935483871,75.56451612903227,3.774193548387103,74.83870967741936,76.65322580645162,-0.061444615881447,26396.17063185782,1202.303731975016,23193.63086528773,27371.17799045318,26831.51626804387,4177.547125165449,26520.1734788059,27083.472669943323,-95.41546968001286,8.685720436351827,2.981614229214012,5.437797312836652,16.58204724727148,7.636625461477939,11.144249934434828,6.291091206197422,10.413234329923943,0.1983851930768601,9.70315061064471,1.4448416922376124,6.309145404818104,12.291184294331424,9.869383586515768,5.98203888951332,9.311634539732497,10.509964014807643,-0.0788506453357164,1382.4594526988742,390.8958535086581,672.0698239124704,2694.721094333536,1302.4010667007717,2022.6512704210652,1163.1008280213443,1444.411757406765,5.932282050965123,4.862974050404663,0.0568313533483688,4.71250310864858,4.978032806601569,4.867585411141093,0.2655296979529895,4.819349265433164,4.89764029350548,0.0007573113155386,35.06623924731183,0.2617359137238066,34.49387096774194,35.391548387096776,35.10863548387097,0.8976774193548351,34.953870967741935,35.28710564516129,0.0104900965230179,98.17817337096776,0.7520938856412902,96.82745851612904,99.22741722580643,98.34329846774196,2.399958709677392,97.48021474193548,98.81155533870968,0.0535647531737757,0.000970349905731,0.0073934148856396,-0.0247672351946954,0.0217187192627261,-0.0001169610916788,0.0464859544574215,-0.0015983252130062,0.003367991379021,0.0001424258483514,0.0,0.0,0.0,0.0,0.0,0.0,0.0,0.0,0.0,0.0,0.0,0.0,0.0,0.0,0.0,0.0,0.0,0.0,0.1625,0.3094013035956162,0.0,1.0,0.0,1.0,0.0,0.125,0.0018631813125695,1586.8223644092882,896.6398099927065,263.4063271367116,4191.341973646428,1533.1815440056423,3927.9356465097167,864.9720568056232,1878.274016248552,-34.24989411141689,2.65,1.8313388772516497,0.0,5.3125,3.21875,5.3125,0.484375,4.234375,-0.1940211345939934,0.2913860887096773,match_0_player_1,Lower,0.284407179032258,0.0069789096774193204,1.024538444146052,Elevated
match_0,player_1,300.0,330.0,75.20537634408603,2.0616492751780244,71.5806451612903,78.7741935483871,75.98387096774194,7.193548387096797,73.43548387096774,76.51612903225808,0.1534105995909416,26346.13505878724,956.32610737471,24031.94486120716,27516.775496253067,26424.932839681824,3484.830635045906,25750.04546776989,27180.94050757461,106.75746199799636,6.91987685035482,1.1803626654519013,4.998469809760133,9.722797010228168,6.819758064516129,4.724327200468036,5.939978867840788,7.704503318606386,0.0506972915525952,9.895118752215527,0.7257040242519223,8.552576711250984,11.1503197562993,9.959307480481751,2.5977430450483165,9.327537372147914,10.411873348262018,0.0265027256065989,1178.613703022294,312.8419434483436,799.5527416432788,2298.5706980288605,1157.899502971768,1499.0179563855818,954.5482929105576,1288.913466635987,8.899849092441642,5.1032460578914,0.1663092613467979,4.787995779349709,5.364442752281009,5.0971702584135965,0.5764469729313006,4.98054587231799,5.231002824123825,0.0027060998741858,34.89612715053764,0.037695480326629,34.85,34.98480322580645,34.891516129032254,0.1348032258064506,34.86246774193548,34.92202943548388,0.0016078755367366,98.82298925806452,0.5833442883958315,97.90011432258063,99.81169548387096,98.8161044654378,1.9115811612903288,98.27944527880184,99.34359572465436,0.0201896307438359,-0.0002364319154622,0.0037120045406941,-0.005085057007169,0.0116321448599194,-0.0009436585083425,0.0167172018670884,-0.0025283219416314,0.0006883651191708,-0.0001412813868001,0.0,0.0,0.0,0.0,0.0,0.0,0.0,0.0,0.0,0.0,0.0,0.0,0.0,0.0,0.0,0.0,0.0,0.0,0.1604166666666666,0.2722797912483081,0.0,1.0,0.0,1.0,0.0,0.21875,-0.0042964404894327,1801.0659101769,456.2557888633185,895.2643871355319,2881.753626180098,1832.5086853325329,1986.489239044566,1460.2256414450212,2122.2175791257423,-10.44182300320226,4.033333333333333,1.3675683001428325,1.0,7.1875,3.90625,6.1875,3.609375,4.8125,0.0963570634037819,0.2618468435483871,match_0_player_1,Lower,0.28789663387096764,-0.026049790322580535,0.9095168638399024,Normal
match_0,player_1,330.0,360.0,80.26881720430107,1.9203048761682453,76.61290322580646,83.90322580645162,79.56451612903226,7.290322580645153,79.04838709677419,81.70161290322581,-0.070070687861066,27231.103896820063,333.9469813677361,26695.06551132729,27752.905354114388,27319.041176774397,1057.839842787096,26910.279075489037,27471.503744494472,-3.696823170315544,7.8647393700363795,1.5426363248030095,5.838296616837136,11.736453226815147,7.340524823982731,5.898156609978011,6.714927046137706,8.61841322197341,-0.0849556910266162,9.385136241064645,0.6948068877514652,7.611054287962234,10.812726199842643,9.368715578284814,3.2016719118804096,9.01348347757671,9.904843627065302,0.0248116894437613,1312.273299082213,408.2584313537016,729.4182851371424,2306.074317086865,1217.933728182799,1576.6560319497223,997.5641316144756,1559.1192913277446,-21.880084289267398,4.977988104750433,0.289650730737938,4.567548162470885,5.6209165979198,4.916247559687977,1.053368435448915,4.776733157325939,5.123730193961689,-0.0265645281718052,35.07402688172043,0.0353656972703124,35.00058064516129,35.14509677419355,35.07851129032258,0.1445161290322545,35.04484838709678,35.10048387096774,0.0028278732641995,99.22387831935482,0.4622581959909226,98.32585367741936,99.83736948387096,99.26792011290324,1.511515806451598,98.88313614516127,99.6286614032258,-0.0429646823136848,-0.0016119176004403,0.006183120423636,-0.0199151712128604,0.0182731590105087,-0.0008403391965505,0.038188330223369,-0.0016741649981706,0.0004647861929766,0.0002711481896753,0.0,0.0,0.0,0.0,0.0,0.0,0.0,0.0,0.0,0.0,0.0,0.0,0.0,0.0,0.0,0.0,0.0,0.0,0.19375,0.3796071159765052,0.0,1.5,0.0,1.5,0.0,0.171875,-0.0301585094549499,1666.503006441974,436.0293061196425,613.1804083067004,2364.422987207948,1730.218071552394,1751.2425789012475,1483.7816020626135,2050.721229845347,9.893524806946328,4.966666666666667,1.292076547869961,2.3125,7.3125,5.1875,5.0,4.328125,5.6875,0.0261123470522802,0.2690541677419354,match_0_player_1,Lower,0.27586625483870963,-0.006812087096774222,0.97530655896729,Normal
match_0,player_1,360.0,390.0,74.84086021505378,1.0303050521106207,73.48387096774195,76.96774193548387,74.5483870967742,3.4838709677419217,74.0,75.56451612903226,0.0052818543901813,27812.00040267341,410.6761848119727,26993.81832752076,28603.60065907052,27853.37872250171,1609.782331549759,27496.357248549302,28024.387065231505,8.55892575607483,7.938580984755256,1.2023242159402012,5.867741935483871,10.480562448304385,8.097492132179386,4.612820512820513,7.007862903225806,8.478591962718633,-0.0069300234540092,9.991844802194922,1.491270244088836,6.195574350904799,12.516601101494883,9.841532258064516,6.321026750590084,9.29719708890637,11.257449842643588,0.0538034305098154,877.5356187533489,551.0761361292041,433.1140533189647,3529.2956970457417,735.0372609651247,3096.181643726777,620.6124475183881,920.7039472198188,35.70863329676451,5.013405407852887,0.3306928376212358,4.567297588248749,5.656787913457152,4.871625283012378,1.089490325208403,4.808820174879078,5.283617054826684,0.0352410943942139,35.16552607526881,0.0400757133182672,35.0901564516129,35.22664516129032,35.16183870967742,0.1364887096774225,35.146058064516126,35.19911290322581,0.0033891617926715,98.63782294516128,0.5174844345284388,97.4862652903226,99.63943474193547,98.5378028548387,2.153169451612868,98.2588932096774,98.98221210483872,-0.0236347467006368,0.0006568657097675,0.0035869971192229,-0.0054858329123012,0.0073777691473387,0.0010555605295917,0.0128636020596398,-0.0023253064086004,0.0029825729770937,0.0002428377470928,0.0,0.0,0.0,0.0,0.0,0.0,0.0,0.0,0.0,0.0,0.0,0.0,0.0,0.0,0.0,0.0,0.0,0.0,0.4458333333333333,0.4546442443151445,0.0,1.5625,0.25,1.5625,0.0625,0.734375,0.0205506117908787,1419.124948088992,582.4321242770336,574.7278727325954,3451.9213348920653,1392.8056454971245,2877.19346215947,1025.519631683743,1647.796190599017,0.753867117699625,2.0791666666666666,1.6837097351450525,0.0,6.0,1.96875,6.0,1.03125,2.625,-0.0903503893214684,0.2794713403225806,match_0_player_1,Lower,0.2681897491935483,0.011281591129032265,1.0420657059524319,Elevated
match_0,player_1,390.0,420.0,77.51720430107527,1.828807202655256,74.2258064516129,80.25806451612902,77.7258064516129,6.032258064516128,76.23387096774192,79.11290322580645,0.2018515196096008,27844.708906850527,744.8375555078021,26323.060392905936,28817.008971859,28117.396925115143,2493.9485789530627,27390.43120633113,28360.56573450284,81.93985813407092,10.374696070604806,2.8723818248873454,6.5653225806451605,16.92523603461841,9.94708515979169,10.35991345397325,8.091772975909482,11.854186714478807,-0.096890919574179,8.622223149260915,1.4022340418079675,6.797285601888277,11.40241935483871,8.187037765538946,4.605133752950433,7.513326121164438,10.077916011014947,0.0638729328136998,2582.346417893935,526.103592476831,1282.3303450778128,3736.6765929383378,2627.486948891488,2454.346247860525,2220.4557399173627,2984.723924751183,-4.573397506604518,5.084190091136876,0.1998461973271227,4.6322313597420495,5.461329613062711,5.040521063671317,0.8290982533206614,4.930340871686944,5.261309113290341,0.0153567994950145,35.118087562724014,0.1946556971271857,34.637745161290326,35.31807311827957,35.194183870967734,0.6803279569892453,35.05298548387097,35.24091612903226,-0.0097715566878379,98.57691531612905,0.8881878088906147,96.42155529032256,99.40591154838708,98.9652168387097,2.984356258064522,98.27642378225806,99.16567125,0.0524432821557979,-0.0003338078847216,0.0051188659681378,-0.0168325054369639,0.0112281531241506,-0.0002126560679041,0.0280606585611145,-0.0028747371374349,0.0017391711494292,0.0001908941142982,0.0,0.0,0.0,0.0,0.0,0.0,0.0,0.0,0.0,0.0,0.0,0.0,0.0,0.0,0.0,0.0,0.0,0.0,0.0708333333333333,0.2000867867257161,0.0,1.0,0.0,1.0,0.0,0.0,-0.0112347052280311,1148.3096936174331,733.9717146224498,51.18476985769036,2451.5005038336703,1063.2029498681286,2400.31573397598,522.8896467082463,1914.791027930648,21.977506119312743,1.875,2.0143366360500257,0.0,6.625,1.0625,6.625,0.265625,3.328125,0.1801167964404894,0.3035584258064515,match_0_player_1,Lower,0.2681897491935483,0.03536867661290316,1.1318793008280796,High
match_0,player_1,420.0,450.0,77.58387096774194,1.882433351891892,73.80645161290323,80.0,78.06451612903226,6.193548387096769,76.08870967741936,79.19354838709677,-0.1690982812443941,28089.78640210568,506.9268501874312,26925.9605486867,28901.938647343468,28280.510393066917,1975.9780986567675,27860.930683466988,28347.504832169427,-7.220667991148455,10.68250993564526,3.676138328125343,6.404838709677419,23.95694789081886,9.432779307631783,17.55210918114144,8.61787962234461,11.513988833746897,0.0083040655837073,8.508106763635874,1.5711269934550527,5.701829268292683,11.552419354838708,8.51290322580645,5.850590086546025,7.440167493796526,9.73646243115657,0.0730477280341188,1518.636877252286,698.8004729307971,321.27397246449846,3518.6024753859274,1417.4473953366328,3197.328502921429,1126.632217222991,1843.881092729892,-19.874775659944493,4.88060789118609,0.2563193318553118,3.894967556823194,5.172802617841112,4.9323561426346245,1.2778350610179183,4.87885458307251,5.007729378814923,-0.0050868732502978,35.183807706093184,0.1401899832884929,35.03098064516129,35.37374516129032,35.10654032258064,0.34276451612903,35.061844354838705,35.350025806451605,-0.0144908801894586,98.6801298645161,0.7640958854552852,96.86109077419354,99.68750729032256,98.87435567741936,2.826416516129015,98.67786273387097,99.15151069354836,0.0666352438767071,0.0005824222906255,0.0075961478249378,-0.0330724432742623,0.011867174328225,0.0007965356096608,0.0449396176024873,-0.0006444914302436,0.0035349514658151,-2.0229919851573047e-05,0.0,0.0,0.0,0.0,0.0,0.0,0.0,0.0,0.0,0.0,0.0,0.0,0.0,0.0,0.0,0.0,0.0,0.0,0.05,0.1979057014506319,0.0,1.0,0.0,1.0,0.0,0.0,0.0092324805339265,710.0247548091204,738.3878935536399,71.8905572437165,2616.6118031704154,374.49161283650136,2544.721245926699,149.68757834063052,1016.2766278165471,-7.610403625367131,5.21875,1.9075473727188708,1.1875,8.25,5.71875,7.0625,3.765625,6.84375,0.0997080088987764,0.2994459048387096,match_0_player_1,Lower,0.2681897491935483,0.031256155645161265,1.1165449303679544,Elevated
match_0,player_1,450.0,480.0,71.51612903225805,1.332248952037363,70.0,74.0,71.20967741935483,4.0,70.29032258064515,72.0,-0.0881122394057921,28365.191852050044,890.1463969955527,25241.999087311,29052.16088383797,28617.94252130962,3810.161796526969,28312.99347752456,28909.233407695538,-36.527939229394,9.078047906285514,1.2596626993581128,6.562096774193549,11.63790322580645,9.081038552321006,5.075806451612902,8.25455069124424,9.785972331497508,0.0123508663750332,8.919955103468086,1.2363829130901762,6.324193548387097,12.022217226780562,8.822611086133904,5.698023678393465,8.116847907534375,9.574798387096774,0.024355098969965,1437.818788057986,679.5245722460837,690.7401441065047,2897.537355943563,1093.0526168788117,2206.797211837058,969.6320385147508,1860.5587766567864,33.116097187489736,5.007044205618484,0.1856462525102387,4.702953254543166,5.502037578903074,4.991723777915909,0.7990843243599084,4.873405305997012,5.089080862806171,-0.0055094825479259,35.151901505376344,0.0355044623848741,35.07882258064515,35.214408602150534,35.14625806451612,0.1355860215053823,35.12947580645161,35.179923924731185,0.0033397031349047,98.57310795483872,0.2807029142758365,98.13908258064517,99.01724825806453,98.58360891935482,0.8781656774193607,98.3231579032258,98.81434322580644,0.0120258166277922,-0.0044200130065746,0.0089311471028322,-0.0426178249164396,0.0055242282186304,-0.0023559525816834,0.04814205313507,-0.0061740103634151,0.0003822422512467,-0.0004401075743405,0.0,0.0,0.0,0.0,0.0,0.0,0.0,0.0,0.0,0.0,0.0,0.0,0.0,0.0,0.0,0.0,0.0,0.0,0.2729166666666666,0.3867881005437243,0.0,1.25,0.0625,1.25,0.0,0.453125,-0.0093020022246941,1578.1045521335166,482.2138775975624,676.5335575977051,2681.8024323857367,1553.804065521471,2005.268874788032,1223.759884981751,1821.0326200356287,23.461551714561992,1.5895833333333331,1.4470411021767449,0.0,5.125,1.03125,5.125,0.359375,2.4375,0.0542686318131256,0.2647599161290321,match_0_player_1,Lower,0.27426275403225797,-0.00950283790322587,0.9653513363972559,Normal
match_0,player_1,480.0,510.0,73.32688172043011,2.022861590361245,69.35483870967741,76.67741935483872,73.25806451612902,7.32258064516131,72.37096774193547,75.07258064516128,0.0200222469410438,26674.27210940636,708.2448906365054,25239.6726625608,27790.131818153684,26598.23603996233,2550.459155592885,26164.44930481112,27204.45623902306,7.1965843391182025,11.32417191188041,4.827506899082184,6.587903225806452,26.9866640440598,9.435159323367426,20.398760818253344,7.87983870967742,13.332267899291894,0.1957989732450339,7.920152798071759,2.9994438995895374,4.006451612903225,17.439516129032256,7.38790322580645,13.433064516129033,5.576814516129033,9.291129032258064,-0.1500404764134377,1340.7698718149477,388.93962006354064,743.9653701622385,2298.4486925930987,1374.0770545956468,1554.4833224308602,1057.3476219501472,1623.9392002762568,5.144460316265874,4.8046875244846206,0.1206448167369545,4.543196948209882,5.017821350949892,4.822194816059771,0.4746244027400097,4.737883206142392,4.890100471812584,0.0005355593753563,35.24579258064516,0.027387517736167,35.152903225806455,35.278129032258065,35.2534064516129,0.1252258064516098,35.239700806451616,35.25829032258064,0.000545963615486,98.81815455806452,0.8204906764879412,97.29748922580644,99.69001045161288,99.22309693548384,2.392521225806433,98.06214949193549,99.50391812903226,0.0297094420682469,-0.0001600287183241,0.0067336816492971,-0.0182279437689098,0.0184768953385641,0.0005680898146926,0.0367048391074739,-0.0027367023392044,0.0028361067690546,3.368819541879878e-05,0.0,0.0,0.0,0.0,0.0,0.0,0.0,0.0,0.0,0.0,0.0,0.0,0.0,0.0,0.0,0.0,0.0,0.0,0.1291666666666666,0.2685480507387004,0.0,1.0,0.0,1.0,0.0,0.109375,-0.0054505005561735,881.5872532861048,486.4090296241392,24.844615501174843,1590.0990127543253,958.7406846834136,1565.2543972531505,510.5887405891256,1270.3795154776194,-20.01843909134945,1.6041666666666667,1.8673687295824093,0.0,5.3125,0.78125,5.3125,0.0625,3.296875,-0.1072302558398221,0.3334233080645161,match_0_player_1,Lower,0.27426275403225797,0.05916055403225812,1.215707576630328,High
match_0,player_1,510.0,540.0,72.08387096774192,1.588429373230878,69.12903225806451,74.35483870967741,72.38709677419354,5.225806451612897,70.89516129032258,73.55645161290323,0.0391833219706474,27372.66070011648,263.3512678083599,26882.02684463436,27763.65448914629,27354.26141570808,881.6276445119292,27184.64101018012,27579.251646824123,-13.72352021650152,8.511985548763674,1.411046030613005,6.28939205955335,11.161349331235249,8.381894177812745,4.871957271681898,7.42190393693639,9.61210169158143,0.019258209548286,8.458247291654057,0.7307051199865846,6.8581431943351685,9.617301640137988,8.621370967741935,2.75915844580282,7.805403074502208,9.029971479150277,-0.0081161837508735,1089.3606004360877,289.2451433593166,626.9083663322715,2020.0930510142505,1028.7232609388434,1393.184684681979,909.4519123062744,1200.4468527709505,13.709032723116168,5.026924995257624,0.1199660061678068,4.838484758377183,5.309712855059236,5.005148076673912,0.4712280966820534,4.93484059326463,5.105564115915473,-0.0042831536526618,35.27608731182796,0.0442220105326188,35.223354838709675,35.35825806451612,35.26711827956989,0.1349032258064468,35.23559623655914,35.31285483870968,-0.0026692099943788,98.37724394516128,0.7723414371473862,96.94095741935485,99.40094603225806,98.38124046774196,2.459988612903217,97.9110418064516,99.23132373387098,-0.0413698373461579,-0.0011157309265626,0.0047211533791282,-0.0167179798189578,0.010017788074668,-0.0005153628749467,0.0267357678936258,-0.0035655627842395,0.0018374750959108,-5.736343465175531e-05,0.0,0.0,0.0,0.0,0.0,0.0,0.0,0.0,0.0,0.0,0.0,0.0,0.0,0.0,0.0,0.0,0.0,0.0,0.3229166666666667,0.4811778445185891,0.0,2.0,0.09375,2.0,0.0,0.5,-0.0261262513904338,1675.5772417795326,632.8308699408954,931.3730920981728,3049.808216604601,1392.4524985528242,2118.435124506428,1151.6248762769949,2210.9037798108598,3.2471740357720997,2.972916666666667,1.03803742773991,1.1875,5.125,2.875,3.9375,2.5,3.625,-0.033439933259177,0.2825128983870967,match_0_player_1,Lower,0.2819392596774193,0.0005736387096774154,1.002034618060407,Elevated
match_0,player_1,540.0,570.0,72.40537634408602,2.088281947873498,69.70967741935483,76.0,71.25806451612902,6.290322580645167,71.0,74.50000000000001,-0.2101044170942646,28162.95083697645,295.8088023040269,27607.99409357892,28601.511132922085,28233.828211444332,993.517039343169,27915.2807892465,28417.57529352508,2.34211688197984,7.64016297628414,0.6967251113562081,6.107100708103856,8.869079464988197,7.64758064516129,2.76197875688434,7.155984461054288,8.194915420928403,-0.0058328481323087,8.209749260050204,0.8243524420386753,6.665342250196695,9.459571578434678,8.410483870967742,2.794229328237983,7.48470692368214,8.844246656176239,0.0096224498398823,1390.7897721831391,509.7176794607127,631.8501889811616,2892.3062052953283,1289.3889537708371,2260.456016314167,965.4684312666128,1764.7898079588576,18.68363384896281,4.968434597837179,0.1097091810070311,4.673246021019452,5.212649261804731,4.96745562092463,0.5394032407852789,4.91249765453173,5.019395958965895,0.0011979698960556,35.20276311827957,0.1935692210075635,34.757290322580644,35.40529032258065,35.24253709677419,0.6480000000000032,35.11294112903226,35.351290322580645,0.0102092774528443,98.11145909032258,0.5501621588040657,97.45610761290322,99.29907535483868,97.91463687096774,1.842967741935453,97.7216242419355,98.4163155483871,-0.0359187384549162,-0.0013993358283976,0.0034397367467848,-0.0133483646565417,0.0060763207584235,-0.0006573971837675,0.0194246854149651,-0.0024506478597755,2.288982097251884e-05,0.0001433927619509,0.0,0.0,0.0,0.0,0.0,0.0,0.0,0.0,0.0,0.0,0.0,0.0,0.0,0.0,0.0,0.0,0.0,0.0,0.1291666666666666,0.2685480507387004,0.0,1.0,0.0,1.0,0.0,0.109375,-0.0028642936596218,1649.6806680052218,723.1158464371337,413.0318208636618,3500.109562882269,1585.2881362663654,3087.0777420186078,1135.8436035520358,2065.575278203401,24.12042183667672,2.777083333333333,1.7551029271020608,0.25,6.125,2.5625,5.875,1.28125,3.875,0.0672830923248053,0.2714513209677418,match_0_player_1,Lower,0.28346003870967734,-0.012008717741935515,0.9576352356522643,Normal
match_0,player_1,570.0,600.0,73.79462365591398,1.7337418473219386,71.32258064516128,77.51612903225806,73.40322580645162,6.193548387096783,72.49193548387098,74.65322580645162,0.116739029028668,26294.826857409484,759.8807350708245,24827.80656987033,27980.32788548081,26197.694377880456,3152.52131561048,25872.860705552903,26783.39209370072,-15.651942396695445,10.142538541753726,3.680118864706248,6.4353461841070025,22.36901670975235,8.998554287962232,15.933670525645349,7.545343233674272,11.515383390540746,0.1456937317874899,8.86227423245519,1.4266373863415025,5.70582218725413,12.101711250983476,9.132061837323445,6.395889063729346,7.869128638867034,9.78477576711251,-0.0870255205144047,1731.0787335389691,650.4590837781269,749.3679265507553,3503.9469674883253,1674.127600069416,2754.57904093757,1222.1029941099764,2045.178811089581,45.66245105455558,5.0779938846465695,0.1466720647036382,4.813313168158784,5.341167805100467,5.071070151735668,0.527854636941683,4.974181519133118,5.175997128313254,0.0018340190172887,35.01801806451613,0.1091203782422517,34.90859032258064,35.26290322580645,34.96295967741936,0.3543129032258036,34.92767338709677,35.08768064516129,-0.0114809855634104,98.6102459940092,0.615391221456976,97.65950212903226,99.65334238709676,98.5601421221198,1.9938402580644947,98.11828283064516,99.09944504838708,0.0453115877887844,0.0025702875025827,0.0034267084300713,-0.0075845705409288,0.0114646520096909,0.0026285431549654,0.0190492225506197,0.0010804343419031,0.0039612750524265,-2.6701350162860256e-05,0.0,0.0,0.0,0.0,0.0,0.0,0.0,0.0,0.0,0.0,0.0,0.0,0.0,0.0,0.0,0.0,0.0,0.0,0.19375,0.3740787294585636,0.0,1.5,0.0,1.5,0.0,0.171875,-0.0137791991101223,2056.7775396667794,750.6090709224846,633.4243635447933,4054.541925947354,2007.997277199912,3421.1175624025605,1562.246958568854,2270.628003842025,-25.27050009439144,3.372916666666667,1.667589588214745,0.6875,6.125,3.6875,5.4375,1.8125,4.640625,-0.0789905450500557,0.2878617693548387,match_0_player_1,Lower,0.28099211935483864,0.00686965000000006,1.0244478386645606,Elevated
match_0,player_1,600.0,630.0,78.65698924731181,1.0834895428881277,77.0,80.87096774193549,78.7741935483871,3.870967741935488,77.80645161290323,79.28225806451613,0.0703218630018996,27323.40181811398,346.2248150505448,26658.29843876977,27999.872838856925,27303.9338169225,1341.5744000871564,27084.4935808633,27518.25246425453,32.00897236707035,14.468160046578248,5.212609704292983,9.413375295043272,29.089693154996063,12.204344953499165,19.67631785995279,10.845088664286145,16.91576514555468,0.2584838694913737,9.081278378146756,1.4049710576618712,6.234656741108354,12.451740069163632,9.397334775767112,6.217083328055278,8.122717323327079,9.897998623131391,0.0226382190512429,2378.5472644154274,1179.2189605217222,67.50218721207297,4294.831569327881,2182.390357830019,4227.329382115808,1771.630473391603,3256.5489751130644,-82.91905830374803,4.840958352829281,0.1128811278102645,4.612976046101132,5.114645476252264,4.837606228687054,0.5016694301511313,4.760686525804379,4.89337053273473,-0.0030440861032505,35.05902844086021,0.0636039680994359,34.92492258064516,35.13756505376344,35.067301075268816,0.2126424731182794,35.02232258064517,35.11319784946236,0.0054511369861359,98.70075912695852,0.8862414230774357,97.32249367741936,99.77563306451611,98.55565567741937,2.453139387096755,97.95932497465438,99.72483535887096,0.0877341649415865,-0.0003166650729678,0.0063917631258092,-0.021854625741254,0.0146714168505767,-0.0001810451653582,0.0365260425918307,-0.0030927152625422,0.0023643951020291,-1.5912093846156133e-05,0.0,0.0,0.0,0.0,0.0,0.0,0.0,0.0,0.0,0.0,0.0,0.0,0.0,0.0,0.0,0.0,0.0,0.0,0.0645833333333333,0.2005742623624034,0.0,1.0,0.0,1.0,0.0,0.0,-0.0040183537263626,928.6242682905032,453.8610260940368,301.3609590386264,2058.3720883758533,792.4025570092654,1757.011129337227,580.0799303347796,1296.9749678188464,1.7605125583446228,3.8229166666666665,1.6242052009282022,0.75,6.875,3.9375,6.125,2.234375,4.953125,-0.0802975528364851,0.3189576483870967,match_0_player_1,Lower,0.28099211935483864,0.03796552903225808,1.1351124334711855,High
match_0,player_1,630.0,660.0,75.46559139784945,3.5909440509124417,70.83870967741935,80.96774193548387,74.45161290322581,10.129032258064528,72.23387096774192,79.0241935483871,-0.3660482973913686,28680.514093467427,274.3656002728078,28065.23821627009,29101.87743837173,28737.25720948081,1036.6392221016397,28461.27489970428,28870.948996260533,28.696764656109117,8.745301411735047,1.0335139512850708,7.183064516129033,11.97385856783145,8.585366358006013,4.790794051702417,8.171631589299762,9.10029542153362,-0.0121661024600074,9.083332860654188,0.903921960154474,7.000040852145494,11.604543666404409,9.032244951481772,4.604502814258915,8.557192499344346,9.368485091488632,0.0208452690189534,1533.4845524105272,576.0496274268351,765.2661556840819,2723.4475974839297,1381.739565633991,1958.181441799848,1120.1182996979742,1969.652583004659,-21.73231652661726,4.821033889023966,0.1025574268315771,4.5836553211116735,5.016395269074183,4.8113371683920105,0.4327399479625091,4.75689370043333,4.901820672699612,0.0039691196211752,35.15805376344086,0.0563391750014388,35.05,35.2174,35.18196774193548,0.1674000000000006,35.12018064516129,35.20232258064516,0.0053612874520075,98.7964470736559,0.4462584822280849,98.1931287096774,99.70571748387096,98.81833453225806,1.51258877419356,98.4146768145161,98.88151400806451,-0.0198240894721752,-0.0005889519019198,0.0039832219771954,-0.0152104692768633,0.0095734553488701,-0.0004252123273039,0.0247839246257334,-0.0017871473876603,0.0008449975948547,-2.738518494140478e-07,0.0,0.0,0.0,0.0,0.0,0.0,0.0,0.0,0.0,0.0,0.0,0.0,0.0,0.0,0.0,0.0,0.0,0.0,0.19375,0.3159600119740893,0.0,1.0625,0.0,1.0625,0.0,0.25,-0.0068826473859844,1695.2343607026023,526.9743103931177,876.7082329974729,2888.3637251057826,1547.8012411691934,2011.6554921083095,1332.5803777987865,2119.819427531907,-12.904714002647284,3.6375,1.354333323078185,0.9375,6.0,3.875,5.0625,2.46875,4.8125,-0.0827308120133483,0.2880222548387097,match_0_player_1,Lower,0.28518733387096773,0.0028349209677419607,1.009940557069146,Elevated
match_0,player_1,660.0,690.0,72.15053763440861,1.2311804479481805,70.03225806451613,74.87096774193549,72.0,4.838709677419359,71.54838709677418,72.7741935483871,0.0530912483404494,27002.999941237395,1259.274701099648,24986.449263239945,28903.953806047342,26580.14750878787,3917.504542807397,26195.726993702825,28497.32501222993,-94.10241028446,9.660349949901482,2.0192141726493675,6.903501180173092,13.55994623655914,9.193288143799553,6.656445056386048,8.001522120680264,10.9209628245476,0.0707365232464016,8.811069190229299,0.9172044746898158,7.085900461982288,11.94032258064516,8.839103068450038,4.854422118662873,8.242355479230971,9.222324940991346,-0.0203908022606963,1322.367720591841,468.0712870880831,775.8811462430137,2318.486132946646,1174.8169474368603,1542.6049867036324,973.5759059039466,1619.7858947527648,26.147491718317504,5.019390116720919,0.1646979767628707,4.769944413941441,5.356099999958323,5.013224654398834,0.5861555860168819,4.864055040247768,5.128628272319711,-0.0095245310405877,35.1623826344086,0.0914211001885358,34.96756129032258,35.24438387096774,35.21542849462366,0.2768225806451596,35.10528387096774,35.22471908602151,-0.0074471167485981,98.78917446344084,0.3953676409669917,98.09496841935484,99.38787141935484,98.88299401612905,1.2929029999999957,98.46301791935484,99.09740475806451,-0.0268568935878604,0.0006005256047747,0.0045523984132732,-0.0102675573609192,0.0124355287150118,-0.000296438142344,0.022703086075931,-0.0017125295212866,0.002324930044201,1.4935722926203132e-05,0.0,0.0,0.0,0.0,0.0,0.0,0.0,0.0,0.0,0.0,0.0,0.0,0.0,0.0,0.0,0.0,0.0,0.0,0.3229166666666667,0.4768285345791386,0.0,2.125,0.125,2.125,0.0,0.5,-0.0106090100111234,1651.4972716648767,416.4836212869293,720.0164735536548,2493.9428178669627,1666.6379882615274,1773.926344313308,1364.9725861011952,1888.898579267692,-17.3308901568139,2.5791666666666666,0.9398489092520256,0.4375,4.0625,2.75,3.625,1.859375,3.359375,0.0205228031145716,0.2710485612903225,match_0_player_1,Lower,0.28794201209677417,-0.01689345080645166,0.9413303717528585,Normal
match_0,player_1,690.0,720.0,77.76774193548387,3.486124321051169,71.58064516129032,83.35483870967741,77.74193548387098,11.774193548387087,74.58064516129033,80.73387096774195,0.0400731996124706,27549.40910262628,765.4851159058289,24959.192088323063,28267.982328869766,27717.726331998776,3308.790240546703,27206.995292399683,28153.23730730436,-0.5320082349558608,10.039797201880203,3.4566964524773907,5.873288749016522,23.28326776816155,9.046125098347758,17.409979019145027,8.132289081885855,10.36611579313684,-0.2011610553493923,8.624066498454775,1.1961840430589905,6.586311000827131,10.837608182533438,8.599637374165304,4.251297181706308,7.691488001573564,9.44752163650669,0.0132845559198598,1574.817873453415,505.9019490419996,629.3150320444931,2767.464171038678,1599.9902846788805,2138.149138994185,1244.3866579550263,1940.7805073022157,-30.131306776430787,4.947899299431867,0.1694669763513818,4.633603220066703,5.241425303065999,4.975237650751655,0.607822082999296,4.854101924052154,5.055116518409745,0.0076273140444769,35.43827338709677,0.1481607909164916,35.23877096774194,35.66367741935484,35.40487096774193,0.4249064516128982,35.300339381720434,35.582479032258064,-0.0114849819991156,99.38189144516129,0.2912276835895875,98.80838883870967,99.75392167741936,99.45617177419354,0.9455328387096812,99.19648741935484,99.6131669032258,0.0033485364239819,-0.0020157714469138,0.0050913634650099,-0.0205348186849529,0.0061201278048635,-0.0008868570399127,0.0266549464898164,-0.0034121375485692,0.0009223140352736,0.0002592757365585,0.0,0.0,0.0,0.0,0.0,0.0,0.0,0.0,0.0,0.0,0.0,0.0,0.0,0.0,0.0,0.0,0.0,0.0,0.61875,0.9321164872661212,0.0,4.625,0.25,4.625,0.0,1.0,0.0713431590656284,1580.934283781623,439.7602422238144,535.4578564643706,2377.845389298061,1527.6479402924997,1842.3875328336903,1377.1522809725857,1825.687744993404,2.123775845753185,2.4520833333333334,0.9915900705712798,0.25,4.5625,2.5625,4.3125,1.875,3.15625,-0.0495411568409344,0.2761948435483871,match_0_player_1,Lower,0.28794201209677417,-0.011747168548387088,0.9592030059703862,Normal
match_0,player_1,720.0,750.0,73.38817204301075,2.484771284024234,70.0,77.87096774193549,73.75806451612904,7.870967741935487,71.25806451612902,75.09677419354838,-0.1051993254153373,26023.308387168065,952.7105398107486,24242.27324259077,27473.51768315453,26178.486945616474,3231.244440563758,25257.99295949256,26799.202993184957,77.61032243712793,9.53306605078635,1.6470062428769592,6.050806451612903,13.937244764152712,9.638208103855234,7.886438312539809,8.738644886781197,10.56501694607517,-0.1215715742222992,6.5110257899282304,0.831694108682188,4.612081139421816,8.31794641236026,6.639766249355155,3.705865272938445,6.369793891199281,6.927906176239182,-0.0439993235252152,2422.9733579653125,574.4139979180596,1129.9026646546672,3536.2921075428253,2445.9696603745765,2406.389442888158,1961.0116367713808,2803.723797437191,-5.682982489691855,4.742382323397218,0.1534216848171093,4.494753416234451,5.073804993672502,4.702440275483189,0.5790515774380509,4.657141563292972,4.850867938359424,-0.0137999924200802,35.20555043010752,0.0528769223521506,35.1157870967742,35.30443548387096,35.21629838709677,0.1886483870967623,35.158019354838714,35.242,0.0041745143349233,98.45381277096774,0.7029889185288289,97.2896833548387,99.74907522580644,98.46053966129033,2.459391870967736,97.8928348548387,98.81538130645164,0.062658238135562,0.0012573294542976,0.0095235805835051,-0.0104433795061871,0.0434075826421539,-0.0004442429865801,0.053850962148341,-0.0030412074558483,0.0029894631840071,0.000167559437233,0.0,0.0,0.0,0.0,0.0,0.0,0.0,0.0,0.0,0.0,0.0,0.0,0.0,0.0,0.0,0.0,0.0,0.0,0.0916666666666666,0.220518643706654,0.0,1.0,0.0,1.0,0.0,0.0,-0.0057007786429366,1423.104184541006,849.6326376262658,184.3887981380972,3657.017864514409,1430.025994493116,3472.629066376312,789.0826565768328,1844.8598172259003,-8.122848476538836,0.88125,1.0531883635735189,0.0,4.3125,0.5,4.3125,0.140625,1.046875,0.0678114571746385,0.3103824580645161,match_0_player_1,Lower,0.28518733387096773,0.025195124193548357,1.0883458737509983,Elevated
match_0,player_1,750.0,780.0,69.7043010752688,1.026025652286059,68.12903225806451,71.93548387096773,69.46774193548386,3.806451612903217,69.00806451612902,70.41129032258064,0.0036240984606526,27356.1385139854,392.3740128538501,26613.25296636705,27901.633604737865,27458.545677982103,1288.3806383708145,27092.19678430324,27620.880579365035,20.397370791657384,8.596088650836881,0.910679263646492,6.5753283302063785,10.27983870967742,8.745280064152999,3.704510379471042,7.846051337529504,9.15060975609756,0.0015417360382873,8.84172219532369,1.5642795996851089,4.863709677419354,11.162034739454093,9.071439811172304,6.298325062034739,7.95,10.16898603461841,0.0969031252960024,1748.6365442349447,571.8447739039146,813.5951451246101,2958.1293425014483,1708.7081938659244,2144.534197376838,1257.5443018659778,2178.9099657474912,-34.134405136529004,4.697294222732215,0.1034792962474505,4.4345629590222,4.879802289048541,4.713562666996713,0.4452393300263413,4.633008724123081,4.774796605353754,0.0076583309879378,35.45111747311827,0.0895737125504475,35.31184193548387,35.58535483870968,35.45761693548387,0.2735129032258072,35.371084677419354,35.52825806451613,0.0102196185726073,98.61867608064516,0.6494800367059874,97.79117361290322,99.73672896774193,98.56999103225807,1.945555354838703,97.99390033064516,99.2054648467742,-0.029004054662891,0.0017135189812948,0.0043088624025568,-0.014206645959587,0.0101558817824127,0.0012856630189613,0.0243625277419997,0.0002868521170202,0.0040695590157657,7.329271391993443e-05,0.0,0.0,0.0,0.0,0.0,0.0,0.0,0.0,0.0,0.0,0.0,0.0,0.0,0.0,0.0,0.0,0.0,0.0,0.0645833333333333,0.2005742623624034,0.0,1.0,0.0,1.0,0.0,0.0,-0.0014321468298109,1154.3992336715903,698.295331195215,301.2484584095566,3729.212450019196,999.077260926007,3427.9639916096394,691.8987136866633,1268.6922939287322,15.788322268158051,3.05625,1.6996744479948702,0.4375,6.875,2.90625,6.4375,1.71875,3.921875,0.0034621802002223,0.2959241612903225,match_0_player_1,Lower,0.28518733387096773,0.010736827419354777,1.0376483319704957,Elevated
match_0,player_1,780.0,810.0,70.38387096774191,1.0943791052847909,68.54838709677419,73.16129032258064,70.0,4.612903225806448,69.80645161290322,71.06451612903226,0.0117334672934072,27306.07777416834,1268.479004578917,24118.31430346197,28165.54827289896,27906.27947326072,4047.233969436988,27597.94939667754,28036.47660804583,-106.74672547191766,9.257544569906884,2.778868770178533,6.310483870967742,16.822113259151024,8.278688040912666,10.511629388183282,7.48833103855232,9.823272627909724,0.2669180379203711,8.954265043244195,1.458639160550737,4.881209958412948,11.8197270471464,8.913976513258575,6.938517088733453,8.325516325727772,9.99245391705069,-0.0518612966094127,1562.5484695015462,660.410113908562,602.4144813374821,3826.780961647852,1461.2670932902947,3224.36648031037,1121.8919033954323,1872.3262977570373,-48.93804591443617,4.813764899946028,0.1347312439144705,4.59789213923102,5.117543660235514,4.781799134817378,0.5196515210044934,4.72959235968396,4.880093808004157,0.0100259105955682,35.552770752688176,0.0356579815210512,35.43639354838709,35.607029032258055,35.55469354838709,0.1706354838709671,35.535577419354844,35.574846774193546,-0.0002323197818375,98.56278311935483,0.8527429740646574,96.99692664516128,99.64095967741936,98.56022361290324,2.644033032258079,97.97278974193549,99.38738579032258,0.0735366353223996,0.0004438278241584,0.0037639589026944,-0.0054585221281597,0.0134591086083872,-0.0003362890451814,0.0189176307365468,-0.0008929378053472,0.0013599796269821,2.4788711173324847e-05,0.0,0.0,0.0,0.0,0.0,0.0,0.0,0.0,0.0,0.0,0.0,0.0,0.0,0.0,0.0,0.0,0.0,0.0,0.3229166666666667,0.3926682671868908,0.0,1.25,0.125,1.25,0.0,0.5,-0.0037124582869855,1523.1360459686796,945.7465218530932,59.63891171983608,4214.979517493275,1492.694088450839,4155.340605773439,1108.89205264891,1780.6320333211515,-64.10074970766696,1.9708333333333332,1.30590937876851,0.0,4.8125,2.0,4.8125,1.015625,2.78125,-0.0863459399332592,0.2792054548387096,match_0_player_1,Lower,0.28794201209677417,-0.008736557258064548,0.9696586226009691,Normal
match_0,player_1,810.0,840.0,75.14946236559142,3.634320957141337,70.03225806451613,80.87096774193549,74.85483870967742,10.83870967741936,71.16129032258064,78.5,-0.2711758584807509,24969.92250276449,930.0948774143112,23237.393330717063,26278.365111839776,25095.961518858807,3040.971781122713,24161.513230734243,25781.47298443484,102.3526098181743,9.607557526833686,1.8769981532058788,7.461290322580645,14.75774605672324,9.193145161290325,7.2964557341425955,8.007862903225806,10.441392679900744,-0.1206815315635592,7.306847191841289,1.4663502384686695,4.142621108238733,10.256451612903223,7.04278127458694,6.113830504664491,6.148387096774194,8.616005593213501,0.1455076594825496,2023.4307206887745,843.3938886499902,572.1783780412532,4403.5772656901045,1862.7189010417403,3831.398887648851,1430.2754909517994,2629.8715956977167,12.423230233350722,4.693262197610959,0.1277709308220492,4.481126044547271,4.908674873489343,4.690480944197962,0.4275488289420712,4.588801865546737,4.805779330127848,-0.0040064419024706,35.21737252688171,0.3118118131855966,34.481870967741926,35.48966129032257,35.38287096774194,1.0077903225806466,35.102951612903226,35.43606451612904,0.0050138279091456,98.85235844193546,0.3997737927517104,98.16975783870969,99.68750729032256,98.79393346774194,1.5177494516128718,98.67786273387097,98.9053414516129,0.0380952240769273,-0.0009450269087253,0.008226460222167,-0.0255066485155969,0.014673418013935,-0.0006733122237355,0.0401800665295319,-0.0051391746592139,0.0041873361360213,0.0001855255841738,0.0,0.0,0.0,0.0,0.0,0.0,0.0,0.0,0.0,0.0,0.0,0.0,0.0,0.0,0.0,0.0,0.0,0.0,0.0,0.0,0.0,0.0,0.0,0.0,0.0,0.0,0.0,1802.215076954636,1213.1900363061372,47.64788298466423,4806.2721673317,1510.4021103793402,4758.624284347035,828.4072508689354,2675.531031112111,79.20358539673299,0.9020833333333332,0.9695471630554592,0.0,3.125,0.59375,3.125,0.0,1.453125,0.0865266963292547,0.4803356887096774,match_0_player_1,Higher,0.28518733387096773,0.19514835483870968,1.6842812834282608,High
match_0,player_1,840.0,870.0,73.43870967741937,3.851101351090602,67.61290322580645,78.87096774193549,73.51612903225806,11.25806451612904,69.71774193548387,77.18548387096774,0.3498797947540266,25795.23942951424,1149.5031782739632,23381.270780239724,26959.981353944742,26370.980079839224,3578.7105737050188,24896.78608060401,26730.475696234687,-84.89908830583681,11.082700566982629,2.6343219042975883,7.802134398515201,19.34354838709677,10.474253061389174,11.54141398858157,9.14510757731647,12.195144646855898,-0.0528070773660244,9.061818674594049,1.576379155978417,5.4712543554006965,11.956189352216102,9.25409227541407,6.484934996815405,8.116050354051929,10.098975292017188,-0.0167607442129226,1700.132708523442,569.481520245552,688.0851087797056,2907.5990065916967,1574.0587161527733,2219.5138978119912,1334.183155137715,2027.5824697029664,-32.92793675593771,4.386377971746834,0.0663828386021707,4.223600314746996,4.482858926538881,4.3890361752930165,0.2592586117918856,4.350779802497893,4.439701804712732,-0.0002558152293199,34.97952405017921,0.1324452322187527,34.841311827956986,35.312516129032254,34.94411129032258,0.471204301075268,34.87569354838709,35.02081854838709,-0.0136218242491661,99.0552084784946,0.3716853850993866,98.2376947096774,99.60412664516129,99.0785356935484,1.366431935483888,98.84932858064516,99.33024570967744,0.0028009302450729,0.0004159662526388,0.0037673677404293,-0.0091389570116291,0.0095044427117145,0.000681133097283,0.0186433997233436,-0.0009851316739333,0.0023878040619514,4.365520718084648e-05,0.0,0.0,0.0,0.0,0.0,0.0,0.0,0.0,0.0,0.0,0.0,0.0,0.0,0.0,0.0,0.0,0.0,0.0,0.0645833333333333,0.2005742623624034,0.0,1.0,0.0,1.0,0.0,0.0,-0.0083286985539488,820.9176926313797,1103.1595581580286,16.143072878502792,3827.648414003796,284.7977671760815,3811.505341125293,157.28221294592396,872.2913528686643,-42.3208394675404,4.29375,1.7459887062922257,0.9375,7.5,4.59375,6.5625,3.375,5.40625,-0.0022107897664072,0.4701610854838709,match_0_player_1,Higher,0.28794201209677417,0.18221907338709675,1.6328325347877855,High
match_0,player_1,870.0,900.0,68.26774193548387,2.0003841115710426,65.06451612903226,71.83870967741935,68.19354838709677,6.774193548387089,66.55645161290323,70.0241935483871,-0.0709103304747225,26555.38972214248,492.7486913495784,25578.149144629915,27162.87640178631,26640.91975945317,1584.7272571563954,26190.35135405901,26969.69713007948,50.115237773633645,9.96899735721923,2.2312472706109494,6.319295830055075,14.528908188585609,9.66445762472513,8.209612358530535,8.253525388851903,11.08154958240029,0.1432000563432987,8.931855059661904,0.6440374280759691,7.479405979543666,10.584316810910044,9.057333464463678,3.1049108313663787,8.457562942564909,9.240584841332284,0.0302590187418726,1271.1505893196545,406.38776009724313,466.8884774798586,2207.8338215280346,1191.088569734745,1740.945344048176,1006.9775971099126,1414.2698807480524,-26.693330329561505,4.5640631961015234,0.0900500156103448,4.327361101541822,4.711022548507516,4.576619319178916,0.3836614469656938,4.504542027462117,4.636830102692532,0.0024324231741005,35.092501756272405,0.0745207196414144,34.93182043010752,35.20638709677419,35.09448387096775,0.2745666666666722,35.04411290322581,35.152580645161294,0.0084477120336806,98.8544955434716,0.4983774228565,97.94130503225809,99.68655922580646,98.76290801612905,1.7452541935483763,98.5779345483871,99.33410361981566,-0.025559668805586,0.0007216000027695,0.004064457358354,-0.0047104095924669,0.0148574421046578,-2.2734062258404625e-05,0.0195678516971247,-0.0011409923469004,0.001847728859655,4.610679926607208e-05,0.0,0.0,0.0,0.0,0.0,0.0,0.0,0.0,0.0,0.0,0.0,0.0,0.0,0.0,0.0,0.0,0.0,0.0,0.4520833333333333,0.4491552642337489,0.0,1.625,0.25,1.625,0.078125,0.75,0.0166991101223581,2034.935672355264,649.8657083596535,1155.5529286950105,3583.6831560070323,1898.8164095034049,2428.130227312022,1620.9333255698762,2319.885678286685,-20.288011349548977,2.933333333333333,1.5590740218333303,0.0,6.0,2.6875,6.0,2.0,4.1875,0.1093993325917686,0.4655304225806451,match_0_player_1,Higher,0.2919732080645161,0.173557214516129,1.594428563040547,High
match_0,player_1,900.0,930.0,73.19784946236558,2.062158151631482,70.5806451612903,76.48387096774194,72.0,5.90322580645163,71.4516129032258,75.37096774193549,0.2093221859413685,25741.80228754355,668.6953844201129,24290.61887038769,26899.237303167167,25799.552619640785,2608.6184327794763,25485.7263993194,26048.526409736653,32.920610465619234,9.143383463070716,2.3290592768598275,6.216129032258064,16.975806451612904,8.651209677419354,10.75967741935484,7.753494263407717,10.496572580645164,-0.1508767585325376,8.7782733784268,1.3319646750266196,6.2262391817466565,11.853973249409911,8.85939235495687,5.627734067663255,7.948689074824991,9.593086440834275,-0.1098883891619944,1344.2072428750068,450.6853211736727,743.7206749025919,2626.463420892655,1265.0381244499406,1882.7427459900632,1013.1834357433412,1530.8327612105645,4.364463908528327,4.510679462312505,0.1135776649837901,4.337462221463172,4.792608610815023,4.496396565130345,0.4551463893518512,4.443107078589656,4.552046966401726,-0.0064051478641309,35.18164731182796,0.065841280914624,35.072845161290324,35.256301075268816,35.20383978494623,0.1834559139784914,35.119933064516125,35.23645430107527,-0.0043373076417061,99.04704885222736,0.6998365713409308,97.3645230967742,99.8458069032258,99.11615801612903,2.4812838064516,98.928594,99.58778823387097,-0.0291301289933014,-0.0035006673395134,0.0047408021677867,-0.0214459066124939,0.0058753065514553,-0.0025634166606518,0.0273212131639492,-0.005086021636616,-0.0005625655525409,-0.0001200116440445,0.0,0.0,0.0,0.0,0.0,0.0,0.0,0.0,0.0,0.0,0.0,0.0,0.0,0.0,0.0,0.0,0.0,0.0,0.24375,0.3761613959902495,0.0,1.25,0.0,1.25,0.0,0.453125,-0.0114432703003337,1457.2379640482263,547.4115027568511,649.0813048820577,2736.725456203369,1377.18892949529,2087.6441513213117,1069.0170782681917,1771.4205878789148,-4.816059723305294,2.0104166666666665,1.2786389383724486,0.0625,4.75,1.9375,4.6875,1.203125,2.984375,-0.080019466073415,0.2989577419354838,match_0_player_1,Lower,0.30315330967741927,-0.004195567741935469,0.9861602443120284,Normal
match_1,player_1,7.0,37.0,77.6032258064516,2.588645528967699,74.74193548387098,82.12903225806451,77.62903225806451,7.387096774193537,75.0,79.69354838709677,0.2159460332268812,26449.471116573142,385.8780037003372,25532.14959369884,27107.714432586494,26531.833691713357,1575.5648388876543,26245.263534920883,26690.619409292744,5.884858160614516,11.808522972787332,5.459329651897471,6.516459379854345,29.08911056161253,9.598241844701324,22.572651181758182,8.8739720137586,11.53615123075194,-0.1742790802690914,9.196373143641042,1.848622522247337,5.479156327543424,12.020456333595591,9.882044509385183,6.541300006052167,8.180476565134315,10.411303939962476,-0.111434580753183,1625.3376831283165,492.8223864906346,738.6232392415558,2597.1609076231007,1565.5105312777955,1858.5376683815448,1285.6493758946874,2072.167315051175,-10.390070680861168,4.755841975927362,0.1734534651353681,4.282604990589281,4.9342693274389,4.816871475705977,0.6516643368496187,4.785661832401484,4.857594128000454,0.0138398436817488,33.59166102150538,0.0389669099748778,33.51024516129033,33.65755483870968,33.589635483870964,0.1473096774193507,33.565981451612906,33.62978615591398,-0.0041418155178405,98.1842979170507,0.950102139794404,96.8075098064516,99.66244567741936,98.16806980645164,2.8549358709677506,97.31385024193548,98.76496683870964,0.0659949862940364,0.0004296526861826,0.0065614061249967,-0.0133569925237165,0.0246307733369893,-0.0004390210523887,0.0379877658607058,-0.0024031000984929,0.0021668566339085,1.4059779331274965e-05,0.0,0.0,0.0,0.0,0.0,0.0,0.0,0.0,0.0,0.0,0.0,0.0,0.0,0.0,0.0,0.0,0.0,0.0,0.0,0.0,0.0,0.0,0.0,0.0,0.0,0.0,0.0,1403.411006461368,887.6717525932095,53.67622028924952,2998.1349961221804,1478.6088167264998,2944.4587758329308,682.5035223982588,1876.8061888775944,8.144115826724383,3.4145833333333333,2.2575961665871267,0.0,6.875,3.5,6.875,1.390625,5.46875,-0.1402530589543938,0.326792464516129,match_1_player_1,Lower,0.2974409516129032,0.029351512903225796,1.098680133801564,Elevated
match_1,player_1,37.0,67.0,78.7268817204301,1.464997631360309,76.12903225806451,81.67741935483872,78.74193548387098,5.548387096774206,77.6693548387097,79.67741935483872,-0.0098173597904484,27402.42302369217,529.0371032699522,26488.808302946512,28468.652648891537,27367.48711026643,1979.8443459450243,27041.696140681568,27796.59200126128,55.154840804728174,11.588089726297827,3.2462318087916966,7.585483870967742,19.94716196470721,10.703992918961449,12.361678093739467,9.205473052714398,12.4235346184107,0.2071031282985248,9.441551838754831,1.8314453625269127,5.606451612903226,12.434453561125473,9.999311565696305,6.828001948222247,8.702561959087333,10.71143503428122,0.1720435811870739,1754.1742982082922,700.9057853991118,660.1082366033962,3242.4223192371846,1741.700721428161,2582.3140826337885,1189.312976335743,2094.558511584023,34.952402734287126,4.597152375039457,0.1451166039290913,4.375590814999929,4.911819260916316,4.556203691232791,0.5362284459163869,4.478709075071031,4.705475766990162,-0.0140029559410723,33.92760114695341,0.5907452276652431,33.46341935483871,35.18190591397848,33.57940000000001,1.7184865591397696,33.51279032258064,34.35663709677419,0.0581014991567682,97.5578573032258,0.9906446247259468,96.486024,99.41308103225803,97.2636988064516,2.927057032258034,96.64482774193549,98.43046524193548,-0.0732051986364788,-0.0027186698443977,0.0047622173833153,-0.0153817149505176,0.0032706599579435,-0.000592577091148,0.0186523749084611,-0.0042890715052497,0.0006114211693825,-5.947142687445666e-05,0.0,0.0,0.0,0.0,0.0,0.0,0.0,0.0,0.0,0.0,0.0,0.0,0.0,0.0,0.0,0.0,0.0,0.0,0.0645833333333333,0.2005742623624034,0.0,1.0,0.0,1.0,0.0,0.0,0.0097747497219132,1367.3612140605012,673.4168582033577,439.5511539630883,3138.784522282582,1157.5638974453404,2699.233368319494,844.2993244911916,1885.432965583107,32.26227525263854,4.572916666666667,2.8626584441835803,0.0,8.75,5.59375,8.75,2.625,6.671875,0.2462041156840934,0.3146942025089605,match_1_player_1,Lower,0.30467009999999994,0.010024102508960575,1.0329014974195387,Elevated
match_1,player_1,67.0,97.0,79.61290322580643,2.148332202469596,75.83870967741936,82.48387096774192,80.19354838709677,6.645161290322562,77.79032258064517,81.43548387096773,-0.0952312605403872,28203.956192641097,532.7655498626732,27444.70276364024,29065.0404787662,28075.625039345963,1620.3377151259592,27772.569754470667,28743.133298803303,-41.633055105906095,12.207492989570094,5.619869007311397,6.595559724828017,28.349281593046346,10.552962609119175,21.753721868218328,8.628225806451614,12.194647072046758,-0.1668749431156479,9.290133913861292,1.780726810585068,4.875,11.815593271140084,9.479810538268444,6.940593271140084,8.944556451612904,10.515927419354838,0.000365230938072,1587.062658209145,742.3655179357153,587.1625773865958,3308.0157436130457,1516.0692872314312,2720.85316622645,1018.3573728137258,1955.56488432722,-9.43448250678493,4.419976466431554,0.0745782683132236,4.282063488376786,4.558202884046626,4.432992825668032,0.2761393956698397,4.363137873465236,4.472899815678877,0.0013719801300528,34.94723836917562,0.1835730203095532,34.62815483870968,35.195779569892466,34.95822580645161,0.5676247311827822,34.79425806451613,35.12049435483871,-0.0210854898513288,98.27173748387098,0.4416270147799791,97.12985883870968,98.90988825806453,98.26251209677416,1.7800294193548467,98.09466812903226,98.64854050806451,-0.0445343456600537,0.0001115042016317,0.0049400880852946,-0.0136475867969405,0.013280079692106,-0.0003350721411497,0.0269276664890465,-0.001643425321901,0.0021391339863599,-0.0001816909968721,0.0,0.0,0.0,0.0,0.0,0.0,0.0,0.0,0.0,0.0,0.0,0.0,0.0,0.0,0.0,0.0,0.0,0.0,0.0,0.0,0.0,0.0,0.0,0.0,0.0,0.0,0.0,747.3056396570547,478.0451733389356,136.86236656319932,2577.00525592157,657.9253660461593,2440.1428893583707,413.3204471783892,935.992039132044,18.14663916783196,5.085416666666666,2.683887268134703,0.0,9.5,5.59375,9.5,3.640625,7.1875,-0.1047135706340378,0.327580964516129,match_1_player_1,Lower,0.3125383302867383,0.015042634229390728,1.0481305259920914,Elevated
match_1,player_1,97.0,127.0,74.7795698924731,1.7984284837001236,72.4516129032258,78.38709677419354,74.1774193548387,5.935483870967744,73.0,76.2258064516129,-0.0439987082421351,27479.116511565484,969.2917115877726,25589.897487171693,28616.17189103624,27901.365994950054,3026.274403864547,26626.3298765248,28236.028297811878,-99.9434114564493,9.585352034537715,1.4915089798681764,7.209511993382961,13.895740281224152,9.567053501180173,6.686228287841191,8.365524193548389,10.35327989771833,0.0119730385152494,10.978070786849308,1.2225034398447692,8.509205350118018,13.025,11.204858379228954,4.515794649881983,10.12264948859166,11.941351323407776,0.0561780174694294,1742.75364468693,730.3044568824736,481.03510603726687,3218.57082818485,1696.165090334047,2737.535722147584,1079.396538940608,2217.62598631162,36.508063640093006,4.582128566677492,0.1636601376062083,4.313143593243971,4.914925015044653,4.5939021530572965,0.6017814218006823,4.445237122898034,4.701984964533401,0.0082126533693903,34.65565591397849,0.0332113048888578,34.59744301075269,34.704967741935484,34.6591193548387,0.1075247311827922,34.62355080645161,34.6850494623656,0.0009859734232772,98.85116920537637,0.8649999173829691,97.25445187096771,99.8018629032258,99.19947816129032,2.5474110322580827,98.07112421774193,99.65211660483872,0.0295750819261526,-0.001590701045398,0.0054849748216845,-0.0184851863458789,0.0174255281523928,-0.0013135070711517,0.0359107144982717,-0.0033716132256726,5.706901920890994e-05,-0.0001447580540163,0.0,0.0,0.0,0.0,0.0,0.0,0.0,0.0,0.0,0.0,0.0,0.0,0.0,0.0,0.0,0.0,0.0,0.0,0.0645833333333333,0.2005742623624034,0.0,1.0,0.0,1.0,0.0,0.0,-0.0005700778642936,1736.3544429225526,1142.8232157685552,190.91140448147289,4780.829906357612,1650.77855365781,4589.918501876139,1061.7884846757793,2186.638530008292,86.66374878660496,5.622916666666667,1.7760328078957952,1.5,8.125,5.71875,6.625,4.40625,7.125,0.0519327030033369,0.3033205887096774,match_1_player_1,Lower,0.32074333351254475,-0.017422744802867374,0.9456801031152657,Normal
match_1,player_1,127.0,157.0,76.88709677419355,0.5806302268091333,76.0,77.90322580645162,77.0,1.903225806451616,76.49193548387098,77.27419354838709,0.0209480067458443,27563.094728261643,608.7361902732765,26030.10370532917,28372.898865015253,27614.04711370207,2342.795159686084,27358.56964629507,27984.87460785624,65.03484446214141,8.03222797178344,0.7835731904617322,6.477243841917327,9.896774193548389,7.966669944925256,3.419530351631062,7.469676738485746,8.391969905586151,0.0083680480356915,9.911515362424096,0.8788848499098169,7.134121124089653,11.214948859166013,9.88266129032258,4.08082773507636,9.593563139260423,10.49522584679941,-0.0398030367709591,1297.3951117250083,620.7527005933625,554.2731777900487,2727.2382977604407,1098.065695841347,2172.965119970392,750.5709186498269,1807.2290109251892,-15.607343505144414,4.481959103909594,0.0836405293664635,4.30861961831782,4.613626236734422,4.507064239576436,0.305006618416602,4.422334216601636,4.538175477313088,-0.0031835786262571,34.79584666666666,0.0525705750085995,34.70851290322581,34.87282258064516,34.79748387096774,0.1643096774193537,34.76537096774193,34.84278709677419,0.0057771660267677,99.18595235268818,0.7094489078749592,96.71586212903225,99.67251383870968,99.4351911451613,2.9566517096774305,99.10245113709678,99.63189148387096,-0.0484896403602584,0.0002986131228135,0.0067698125352423,-0.0234057162268322,0.0157618521834304,0.0004198225659502,0.0391675684102626,-0.0013247422432272,0.0028534718728259,-0.0001988226601092,0.0,0.0,0.0,0.0,0.0,0.0,0.0,0.0,0.0,0.0,0.0,0.0,0.0,0.0,0.0,0.0,0.0,0.0,0.0,0.0,0.0,0.0,0.0,0.0,0.0,0.0,0.0,1661.2324101869465,685.3492217072069,691.0539557858742,3691.3784311808536,1506.2233678889131,3000.32447539498,1128.3686993227589,2099.559548453987,23.67541126190024,3.3666666666666667,1.7875971224585874,0.25,6.875,3.40625,6.625,2.015625,4.4375,-0.1185483870967742,0.2627608532258064,match_1_player_1,Lower,0.32074333351254475,-0.05798248028673836,0.8192246752200367,Normal
match_1,player_1,157.0,187.0,74.98924731182797,1.4354254750314603,72.12903225806451,76.90322580645162,75.1774193548387,4.774193548387103,73.93548387096774,76.27419354838709,-0.0489432703003344,27611.99971247236,646.0563662664815,26260.69331178371,28227.326061386128,27891.681851419293,1966.6327496024169,27313.641661974874,28105.329878974982,-51.88338293681333,9.37924855588506,1.5561936208488458,6.431451612903226,12.669433516915811,9.345348151062156,6.237981904012585,8.375005673909095,10.557816251084343,0.1119239540052155,11.942798842690658,1.8482590615326864,8.65678246484698,14.578193023865722,12.391286388670338,5.921410559018742,10.597969118804093,13.393871295567797,0.1852420452734155,1843.713106460678,588.6183525691074,830.0503804261539,3023.3141469758857,1907.4853859270104,2193.263766549732,1343.200483726829,2247.3625403306355,25.177742392740367,4.496290972305131,0.1046522538211838,4.322482586021506,4.7330239111727375,4.4781002853157705,0.4105413251512315,4.429013609082068,4.570199391160946,-0.0013996407850004,34.81876370967742,0.0386858038966093,34.749777419354835,34.867596774193544,34.826274193548386,0.1178193548387085,34.78351854838709,34.856072983870966,-0.0033426513330232,98.7668978483871,0.7180360655227432,96.69087,99.6320987419355,98.92594393548386,2.9412287419354897,98.6133120967742,99.23005567741934,0.0607019617854942,0.0008024105634095,0.0065976986541798,-0.0150151446560488,0.0193189589503295,0.000467153229186,0.0343341036063783,-0.0018325267738499,0.0029828314498395,-0.0001978880666135,0.0,0.0,0.0,0.0,0.0,0.0,0.0,0.0,0.0,0.0,0.0,0.0,0.0,0.0,0.0,0.0,0.0,0.0,0.0645833333333333,0.2005742623624034,0.0,1.0,0.0,1.0,0.0,0.0,-0.0083286985539488,2204.464163784234,812.3429218405627,1240.8580163420252,4165.3770205171095,1897.747477741802,2924.5190041750843,1618.2234261153474,2728.035896315914,18.68472307180956,6.235416666666667,2.51540479540018,1.125,9.0,7.25,7.875,5.015625,8.109375,0.2321607341490545,0.2688933999999999,match_1_player_1,Lower,0.32074333351254475,-0.051849933512544855,0.8383444701882886,Normal
match_1,player_1,187.0,217.0,73.06881720430108,2.360396054489626,70.0,76.67741935483872,72.43548387096774,6.677419354838719,70.75,75.51612903225808,-0.253600775054722,28563.28894238201,389.1485884233183,27749.109626766,29093.73369909109,28606.97918414049,1344.624072325092,28250.30361007248,28952.088611955613,24.85614193905521,11.397012483320506,3.0203099371973603,7.723086505678953,17.56844499586435,10.299931156569633,9.845358490185395,8.763289429885614,13.71626394520769,0.1499257814180897,11.178990478880332,1.0882367022303665,9.162627852084972,13.359952793076316,11.460916601101497,4.197324940991344,10.159367371744436,11.874588830720814,0.0052543894523658,1426.7330858547118,774.4890632237231,397.8364664667529,2995.6171162087203,1248.3464703455254,2597.7806497419674,728.0681263251856,1954.7285759472895,50.923204061814594,4.534400474857518,0.1639220303036505,4.226517970569709,4.797096289964157,4.544345809747224,0.570578319394448,4.431498100872859,4.662269935779424,0.0114675639032187,34.87030521505376,0.2473957854371465,34.42251935483871,35.19211612903226,34.89591639784946,0.7695967741935448,34.672463709677416,35.0903629032258,0.0188186040642518,99.09172386666664,0.4949640721198688,98.10293083870968,99.77356567741936,99.3175938064516,1.670634838709674,98.68051683870968,99.4077653548387,-0.0374755318956566,-0.0009162884810894,0.004260322141851,-0.0135805332385022,0.0069152485836091,-0.0008927982900014,0.0204957818221113,-0.0027403496859671,0.0026942897459964,-0.0001242509772191,0.0,0.0,0.0,0.0,0.0,0.0,0.0,0.0,0.0,0.0,0.0,0.0,0.0,0.0,0.0,0.0,0.0,0.0,0.1291666666666666,0.2685480507387003,0.0,1.0,0.0,1.0,0.0,0.109375,0.007480533926585,2027.9564888212296,620.4119576468566,943.8540530987244,3453.133441167068,1808.4302943660427,2509.279388068344,1601.7827798935662,2444.938220973266,34.315184584892606,6.220833333333333,1.7390830118836256,3.5,9.125,6.15625,5.625,4.59375,7.859375,-0.003225806451613,0.2837630806451612,match_1_player_1,Lower,0.32074333351254475,-0.036980252867383545,0.8847045316190891,Normal
match_1,player_1,217.0,247.0,72.81935483870967,2.856683080790056,69.0,76.90322580645162,72.93548387096774,7.903225806451616,69.79032258064515,75.61290322580646,-0.1929168610283846,29579.79303538985,341.25430394309376,28865.272569201345,30037.956877477467,29703.465895232803,1172.6843082761225,29315.963144178026,29842.41379970597,31.274028418372005,10.592515973405035,3.5021899829641483,6.849881982690794,22.17057716084073,9.385092749500696,15.320695178149936,8.788458512376685,11.185577301337528,0.2099457054114425,10.486466541588491,2.162484729588126,6.6782258064516125,14.037711069418386,10.855348244726688,7.359485262966773,8.402620967741937,12.18103293244914,0.0389125600031235,1593.8559960813732,510.28334602860207,923.7700214432376,3053.7832826721733,1438.588984947675,2130.013261228936,1198.9163468021395,1855.769817657721,2.560011340176288,4.6428163454542695,0.0853465595330055,4.393513388893847,4.770465437080482,4.644689568542589,0.3769520481866344,4.599562303430115,4.70259685672954,-0.0022200265499391,34.69742892473118,0.0538001878041176,34.6571,34.8485870967742,34.66854354838709,0.1914870967742032,34.66334354838709,34.713175806451616,-0.0029024672575272,99.29752741935484,0.3827469491926721,98.572306,99.77884722580646,99.39637470967742,1.2065412258064612,98.98998733870968,99.63586374193548,-0.0315339302594289,2.605965744834093e-05,0.0044671565869147,-0.0097139332464027,0.0101426922362105,0.0009612744212972,0.0198566254826132,-0.0037218739225689,0.0029047382725531,2.8647409566532343e-05,0.0,0.0,0.0,0.0,0.0,0.0,0.0,0.0,0.0,0.0,0.0,0.0,0.0,0.0,0.0,0.0,0.0,0.0,0.19375,0.5225014952131717,0.0,2.5,0.0,2.5,0.0,0.0,0.0077725250278086,1845.493321529856,812.9509190908999,767.7316650786775,4485.814255007129,1550.9743325687814,3718.0825899284514,1449.2159394022476,2162.855592154141,11.894535636290785,4.627083333333333,1.807571123927232,1.6875,8.1875,4.15625,6.5,3.671875,5.828125,-0.0897525027808678,0.271203708064516,match_1_player_1,Lower,0.30900739560931895,-0.037803687544802955,0.8776608971760711,Normal
match_1,player_1,247.0,277.0,72.2010752688172,2.568785697696309,69.0,77.87096774193549,71.2258064516129,8.870967741935488,70.29032258064515,73.12903225806451,-0.2807922781585302,30489.546804845864,494.3879012684246,29529.1514313356,31004.97430951817,30704.442397801588,1475.822878182571,30149.98678750251,30923.10357484173,53.52161958096772,8.289409670886855,1.5424623573921907,5.156648308418568,10.986191974822974,8.139697694123342,5.829543666404407,7.454411275192156,9.508426997864447,0.0364491016166535,11.294801990779568,0.7926353916910668,9.833469507151648,13.316642313888575,11.337169364205163,3.483172806736928,10.772202006294258,11.899983140384398,-0.0248704718673055,1247.7431922203891,556.9639560759172,601.9556983229817,2543.6386813910226,1037.807398504904,1941.6829830680408,820.565387008232,1515.7621905795852,-13.863017759176197,4.447018512174213,0.1233843317459782,4.266403407878051,4.761622040314789,4.392090044361314,0.495218632436738,4.362366654245626,4.55471699372565,0.0108008349884359,34.76336747311828,0.0429857094587222,34.67884193548387,34.82967741935484,34.76124032258065,0.1508354838709706,34.736051612903225,34.80137177419355,0.0024128978434812,97.70449854731184,0.9869386504160452,96.25679245161292,99.41518141935484,97.6058383064516,3.1583889677419137,96.83271803225806,98.49553241129033,0.034163013577807,0.0019016903441934,0.014400700449519,-0.0395628814914132,0.0559595591507382,0.0005623738535712,0.0955224406421514,-0.0012464205314433,0.0023770129728842,0.0004096904650469,0.0,0.0,0.0,0.0,0.0,0.0,0.0,0.0,0.0,0.0,0.0,0.0,0.0,0.0,0.0,0.0,0.0,0.0,0.0645833333333333,0.2005742623624034,0.0,1.0,0.0,1.0,0.0,0.0,-0.0031562847608453,1281.9750018132556,330.32120181925234,831.3108082786666,2046.9357758865149,1225.275955853699,1215.6249676078482,1015.000644036522,1434.3638170459435,0.3793117819341838,3.879166666666667,1.1760338241545416,1.8125,6.75,3.75,4.9375,3.046875,4.625,0.036345939933259,0.2798041016129032,match_1_player_1,Lower,0.30113916532258056,-0.02133506370967736,0.9291521456970793,Normal
match_1,player_1,277.0,307.0,71.32365591397848,1.4090654249250747,69.12903225806451,74.38709677419355,71.20967741935483,5.258064516129039,70.34677419354838,71.86290322580643,0.1116581147511559,30360.121001984797,534.5437199281141,29244.440369875345,30998.106935939195,30538.293614009424,1753.66656606385,29960.55051436895,30779.47952059833,-39.4541027216401,11.075313401521113,3.701688221315014,6.9708515979169015,26.00696021130718,10.0183783859728,19.03610861339028,9.12822088906373,11.998103293244911,0.228711174801603,11.16931815343499,1.453490276532561,8.607021093252406,14.803225806451612,11.19202540182084,6.196204713199206,10.15088278820576,11.592309907834103,0.0504222615856355,1741.1900831431208,886.3775091757615,750.7171461424266,3843.02243726928,1400.3882795644613,3092.3052911268533,1010.562222827931,2427.907540885417,66.3595421479172,4.58700157023186,0.081818888947562,4.448632933666332,4.740656335506891,4.584987454875732,0.2920234018405594,4.517971799662591,4.626176512771261,-0.0010232913409312,34.84740250896058,0.0713832037410689,34.71598064516129,34.94985806451613,34.84460483870968,0.2338774193548403,34.78640887096774,34.91674193548387,0.0005948401449628,98.42002838172044,0.6651881228848623,97.51568516129032,99.65303977419352,98.25576212903223,2.137354612903195,97.91104412903226,98.96515245161288,0.0496489903548732,-0.0038626624837492,0.0070284259396715,-0.0328003299375525,0.0053186696825106,-0.0022201028732218,0.0381189996200631,-0.0041572049028311,-0.0001946737210764,2.547794537931162e-05,0.0,0.0,0.0,0.0,0.0,0.0,0.0,0.0,0.0,0.0,0.0,0.0,0.0,0.0,0.0,0.0,0.0,0.0,0.2583333333333333,0.3991310004942682,0.0,1.5,0.03125,1.5,0.0,0.34375,-0.0134872080088987,1730.1418403963166,842.3575615758393,607.8707383659662,4801.138751476561,1629.6564412871935,4193.268013110595,1058.514547724361,2152.4984369094195,23.326406233335423,3.95,2.0278272444499144,0.3125,7.1875,4.125,6.875,1.984375,5.578125,0.136234705228031,0.2588016451612903,match_1_player_1,Lower,0.29136041129032253,-0.032558766129032246,0.888252607878874,Normal
match_1,player_1,307.0,337.0,74.93010752688173,1.948506072941757,71.35483870967741,78.64516129032259,74.88709677419355,7.290322580645181,73.74193548387098,76.33870967741935,0.2026265743298996,30738.162760735013,685.1202121993117,29198.570394476,31405.01410082633,30987.667684701104,2206.443706350336,30341.335111358203,31312.035858351264,-15.270437278429227,10.279913453973249,2.759784504679589,7.277005789909015,17.88951612903226,9.33556254917388,10.612510339123244,8.106262104339406,11.34597757671125,-0.0001493999521709,10.50269358537258,1.5628024421783924,8.220319655429805,13.354032258064516,10.42827699772035,5.133712602634711,9.029197053602047,11.912593430369784,0.1164397298259382,1039.43429610188,412.0996697145523,558.1316961305074,2259.985331734525,882.517184984395,1701.8536356040177,785.5763823401857,1061.071563676689,0.4508392552777744,4.503308276060013,0.0735610749727316,4.333448863343355,4.610066419827465,4.522617483501408,0.2766175564841102,4.440908893148015,4.556069698610521,-0.0014714107556142,34.85619329749103,0.2772261184956684,34.1822064516129,35.141612903225806,34.95795698924731,0.9594064516129066,34.821260483870965,35.02477419354839,-0.0175563024627138,98.96578131075267,0.5965767449594507,97.55124,99.66447406451614,99.1004729953917,2.113234064516135,98.8592042626728,99.4205400829493,-0.0420682926908042,0.0005922207104948,0.0058319298401211,-0.00918521724293,0.0234159451729643,-0.0002219769568146,0.0326011624158943,-0.0023198529292939,0.0023550010009624,-0.0001631309038019,0.0,0.0,0.0,0.0,0.0,0.0,0.0,0.0,0.0,-0.0147847482542657,0.0990806343320591,-0.4087061631710346,0.2522748944380288,0.0,0.6609810576090633,0.0,0.0,-0.0024651929034529,0.0645833333333333,0.2005742623624034,0.0,1.0,0.0,1.0,0.0,0.0,-0.0040183537263626,1347.5235414235854,424.18029341982407,922.2700283038924,2991.1672407166984,1238.0152224338335,2068.897212412806,1113.371310006477,1404.6105126979055,-4.601381858329872,4.81875,0.9381039721160976,2.875,6.875,4.46875,4.0,4.140625,5.125,0.0366657397107896,0.2964694806451612,match_1_player_1,Lower,0.2817835911290322,0.014685889516129036,1.0521176178402958,Elevated
match_1,player_1,337.0,367.0,75.22258064516129,2.5111938089616257,71.2258064516129,79.16129032258064,75.11290322580646,7.935483870967744,73.01612903225806,77.51612903225808,-0.092597509777891,27135.30703071214,4307.841316078736,19966.72669924904,30990.19775181025,29963.32957642265,11023.471052561214,22219.98816689805,30674.406490372803,-430.4055504286079,8.895203246894095,2.6141321893794607,5.838923520748855,13.588442733505676,7.83916762492687,7.749519212756821,6.670992328874901,11.351620298367274,0.15398979734135,11.47695163231753,2.3091460771728163,8.645967741935483,17.180268629875236,10.943591047185544,8.534300887939754,9.648652243635825,12.877866098627312,0.150208147630406,1212.9973108391027,550.7500047706843,544.4308482624847,2408.6876635110325,1063.7892854566653,1864.256815248548,727.3552005284955,1658.8409605015397,40.77656895278206,4.924912427657486,0.4784529134177609,4.375304738353792,5.699870650224414,4.65144083780332,1.3245659118706214,4.490307848353399,5.499685401822874,0.0521933884075343,34.90562075268817,0.1633297138452212,34.62884193548386,35.12082580645161,34.89010752688172,0.4919838709677506,34.77343279569892,35.06804758064516,-0.0178497171289494,98.79421498064517,0.7004096885485857,97.78334019354838,99.7389304516129,98.81323282258064,1.955590258064518,98.12026658064518,99.49881387096777,-0.0292827285370852,0.001312318714952,0.0042442946256943,-0.0060059079188735,0.0113561847668315,0.0003573808665079,0.017362092685705,-0.0009243420686898,0.0023910284506117,-0.0001677148488989,0.0,0.0,0.0,0.0,0.0,0.0,0.0,0.0,0.0,-0.4143245738693309,0.3253342346865011,-1.1146973548272494,0.0,-0.3694451300169626,1.1146973548272494,-0.6264051527174745,-0.1376977318007336,-0.030130647749784,0.8395833333333333,1.051497361570103,0.0,3.8125,0.3125,3.8125,0.0,1.40625,0.0400027808676307,1425.201378695384,582.0024231990323,634.6669248746011,3531.2829970513194,1243.5229148922967,2896.6160721767183,1034.067339141168,1629.0042625284866,11.323237107756494,4.083333333333333,1.5995062172085763,0.6875,6.75,4.53125,6.0625,3.140625,5.265625,-0.035650723025584,0.2562407983870967,match_1_player_1,Lower,0.2817835911290322,-0.025542792741935494,0.9093531577208158,Normal
match_1,player_1,367.0,397.0,82.24301075268815,1.0029001764976215,80.16129032258064,84.64516129032256,82.01612903225806,4.483870967741922,81.57258064516128,82.79032258064517,0.0264666834116731,24581.271927317524,837.1103927509871,22640.1532078376,25866.61169575954,24777.75679725009,3226.45848792194,24035.7684868031,25115.75219358425,56.35667484490105,14.326490927207816,5.550480635423084,7.893211107654962,28.29418155932711,12.267554180826096,20.400970451672148,10.135218800344685,16.59834820421133,0.1869898073654891,9.65715578022309,2.561201595531865,7.136465763452389,18.79330766925181,9.01807354394884,11.65684190579942,8.385422161289451,9.683766542680967,0.0347042411231172,2371.8968836524887,596.6989198923327,1177.3337211140763,3766.477374680918,2250.8669105979966,2589.1436535668417,2018.7276889331952,2834.7014435065025,-24.855691016939893,5.060262773354782,0.2506362963471588,4.611232210507257,5.71069544515829,5.060905510002718,1.099463234651033,4.890903076220631,5.235922014881434,-0.0202015607463373,34.700863010752684,0.1038745980055318,34.53585161290322,34.88329032258065,34.71021290322581,0.3474387096774265,34.610949999999995,34.75370806451613,0.0113911571997555,99.1457722064516,0.3866758110503157,98.23671270967742,99.6437970967742,99.24938327419356,1.4070843870967735,98.87223406451612,99.43389067741936,0.0195866965876046,1.4317786372606763e-05,0.0089895291906266,-0.0212224044311215,0.0221593607882665,-0.0005208316983225,0.043381765219388,-0.0030196632118032,0.0047432790114596,-0.0001902408368875,0.0,0.0,0.0,0.0,0.0,0.0,0.0,0.0,0.0,-0.0180938530907144,0.0403499273358952,-0.1998125443947227,0.0,-2.524337265350368e-07,0.1998125443947227,-0.0130231479090974,0.0,0.0016164211964898,0.1145833333333333,0.2700710426083395,0.0,1.0,0.0,1.0,0.0,0.0,0.0121106785317018,1780.4421859634094,767.7823805635352,346.9346938990627,3014.082931001645,1816.3937593501448,2667.1482371025822,1250.9536286354296,2317.5084615426576,-2.132091609658341,1.3395833333333331,0.93606603295684,0.0,3.9375,1.40625,3.9375,0.703125,1.796875,0.0109149054505005,0.3099167709677419,match_1_player_1,Lower,0.27550390483870957,0.03441286612903233,1.1249088144473993,Elevated
match_1,player_1,397.0,427.0,79.4505376344086,2.871130638526361,72.61290322580645,83.6774193548387,79.53225806451613,11.064516129032256,78.7741935483871,81.79032258064517,-0.2882270623273192,26105.649702922237,822.8427688596065,24574.58738529648,27348.31944319685,26109.401022263843,2773.732057900372,25561.648392141466,26797.43427327504,93.37846560500432,8.8724018707929,1.2961820325989537,6.444794125360609,11.572777340676632,8.923373515417182,5.127983215316023,7.935095397324941,9.764565302911093,0.0282328334793832,10.60279313876088,1.2859234647462512,8.055453149001536,13.628863661908508,10.693473455471882,5.573410512906971,9.675705293919298,11.518253343823762,0.0208233268566235,1666.9992731583764,710.2159798166755,628.1988658608017,2862.544580617201,1504.1504630032964,2234.3457147563995,936.3645400264458,2326.9803507021707,2.2350067566401584,4.762517507729922,0.1140563991764124,4.570058011544894,4.999258725327611,4.765430178083545,0.4292007137827163,4.680485280296492,4.841539375592513,-0.0102073538496703,34.974023440860215,0.0398946321874656,34.89072258064516,35.025661290322574,34.988466129032254,0.1349387096774137,34.94324193548387,35.004715322580644,0.0031545832286764,98.33010270967742,1.102019171604132,96.11948277419351,99.64191761290324,98.80997541935484,3.522434838709728,97.4987782580645,99.1963862580645,0.0701427155620924,0.0031168355751869,0.008275087030445,-0.0204671573312399,0.0226610035366302,0.0011654511804884,0.0431281608678701,-0.0012595696773137,0.0069976017853772,-0.0007025341862521,0.0,0.0,0.0,0.0,0.0,0.0,0.0,0.0,0.0,-3.485106767011849e-11,1.876787431081852e-10,-1.0455320301035547e-09,0.0,0.0,1.0455320301035547e-09,0.0,0.0,6.7453679361519795e-12,0.3375,0.5886513540854779,0.0,2.25,0.03125,2.25,0.0,0.4375,-0.0417686318131257,981.3552157002428,678.0702197036999,143.75199059582872,2229.448512148738,961.6509152752362,2085.696521552909,283.99277647614394,1519.9921302850234,49.77811649135028,4.522916666666666,1.7918713545868432,1.0625,7.5625,4.5625,6.5,3.0625,5.921875,0.1434788654060066,0.3193273854838709,match_1_player_1,Lower,0.27550390483870957,0.04382348064516134,1.1590666407099284,High
match_1,player_1,427.0,457.0,68.352688172043,1.2590272944985297,66.70967741935483,72.25806451612902,67.91935483870968,5.548387096774192,67.48387096774192,68.87903225806451,-0.1150095087731901,27424.137786343537,605.0367588968732,26238.005753536192,28229.323299874908,27577.024508961884,1991.317546338716,26980.488675801367,27936.07751624929,67.07655161071035,9.096251565795049,1.215404919736783,7.026293507174703,11.961939417781274,9.06778630633268,4.935645910606571,8.183382038889514,9.666588979561965,-0.0106690073102743,8.99580157452255,1.0906388807255272,7.184949983140385,11.01481117230527,8.981559109289517,3.8298611891648857,8.020599172005545,9.726302171143828,0.0562835850631873,918.3426012087552,427.25780532025,469.02056920382574,2595.5902934912992,786.6614035780167,2126.569724287473,687.1173093888563,969.7224505506836,-22.23221887862185,4.657966262766428,0.1633095945547154,4.414533126460964,5.059793166175783,4.64548643640902,0.6452600397148194,4.537213222681938,4.742244815719365,0.0074382605589528,35.07306419354839,0.025352857351651,35.02039032258065,35.10812903225806,35.08351612903226,0.08773870967741,35.06202258064516,35.09,0.0020882349564026,98.11698557741936,0.5462739771011087,97.5325012903226,99.4177989032258,97.85716470967742,1.8852976129032013,97.78258348387098,98.39392053225806,-0.006905486676955,-0.0005311098973807,0.0016103236735773,-0.0049374853292601,0.0026930284116923,-0.0006765478287098,0.0076305137409524,-0.0013653816776503,0.0004195247314697,8.794620775412583e-05,0.0,0.0,0.0,0.0,0.0,0.0,0.0,0.0,0.0,0.0,0.0,0.0,0.0,0.0,0.0,0.0,0.0,0.0,0.19375,0.3092960757914655,0.0,1.0,0.03125,1.0,0.0,0.25,-0.0034343715239154,1372.380931226896,564.4128350714441,706.3928405564883,3267.831857549144,1259.577349602692,2561.4390169926555,1016.049741908264,1593.2022123948254,9.123505047632456,3.0479166666666666,1.0677179877612295,1.1875,6.3125,3.0625,5.125,2.453125,3.515625,0.037889321468298,0.2609561080645161,match_1_player_1,Lower,0.27550390483870957,-0.014547796774193489,0.9471956784688395,Normal
match_1,player_1,457.0,487.0,70.87096774193547,2.134791818473318,67.0,74.83870967741936,70.88709677419354,7.838709677419359,69.49999999999999,71.82258064516128,0.2253112777638215,28498.69442357723,571.0318236369776,27142.99675644531,29146.769604782414,28740.65098888093,2003.772848337103,28288.060044076294,28903.689215760376,-17.629384733537403,10.033586789554532,2.470478894670393,6.627644149713387,16.415233599340603,8.974109250309093,9.787589449627216,7.81068197145105,12.16794846577498,-0.0059688269437455,10.567561069274284,1.2550285684122684,8.600914165823685,13.914465550185456,10.340665392829044,5.313551384361771,9.779205771608408,11.0158318815331,-0.0150578311278724,1625.010126143691,818.3397298212352,532.6884948489444,3287.473112325136,1628.4649614205514,2754.784617476192,918.5951064897902,2327.939214287681,26.851900473348685,4.657080619343761,0.1781522512086909,4.277852040743499,4.963163019192015,4.644597961838089,0.6853109784485163,4.5469749744380135,4.79328707592311,-0.0064327716191899,35.12539688172043,0.1744049087518321,34.75212903225806,35.358648387096764,35.105537634408606,0.6065193548387029,35.06062365591398,35.28439838709677,0.0109037350939501,98.96136413225804,0.3419729282945359,98.53059251612902,99.5525145483871,98.8942094032258,1.021922032258075,98.63292025806452,99.29719098387096,0.004747805597614,-0.0004066616194657,0.007708869161777,-0.0318584251557379,0.0130744339821889,-0.000509339523821,0.0449328591379268,-0.0026651562459694,0.0042979071681178,6.523637575809826e-05,0.0,0.0,0.0,0.0,0.0,0.0,0.0,0.0,0.0,0.0,0.0,0.0,0.0,0.0,0.0,0.0,0.0,0.0,0.2583333333333333,0.3482595615661144,0.0,1.125,0.09375,1.125,0.0,0.4375,-0.0014182424916574,2118.218630907711,907.7145226918047,911.5032869984772,4259.954483876234,1918.582427803952,3348.451196877757,1389.4089629291036,2668.976530610626,65.94518269714945,4.370833333333334,2.3941080744657754,1.0,9.25,3.78125,8.25,2.265625,6.15625,0.214238042269188,0.2648506709677419,match_1_player_1,Lower,0.27550390483870957,-0.010653233870967671,0.9613318225844948,Normal
match_1,player_1,487.0,517.0,69.76451612903226,2.1520126661884023,66.12903225806451,75.03225806451613,69.59677419354838,8.903225806451616,68.41129032258064,71.25,0.0571028741612525,27530.8557897766,2270.229736021695,23656.75258714077,29929.939208296066,28721.127096068907,6273.186621155295,25367.80237362857,29617.242519486637,-213.4910403987644,9.451908600139848,2.166400210110893,5.884611782133419,14.255125976616103,9.317287014061208,8.370514194482684,8.031643391030684,10.413740316528472,0.1617930547032288,9.04448053941476,1.4228730687639763,5.377202989771833,11.935028949545078,9.177016129032255,6.557825959773245,8.455109166011013,9.681840341652016,-0.0822619826104434,1562.172947290929,558.0847184256944,848.3147672911475,3143.114782734651,1408.0342830011136,2294.800015443503,1166.3229946696038,1875.7282540882868,26.740107608960614,4.513487241711429,0.1113753137512601,4.285347047934074,4.712548535483871,4.526339377973051,0.4272014875497971,4.414912422768019,4.592115331153665,0.0077566606376703,34.85019962365591,0.0761450555632183,34.780860215053764,35.09478064516129,34.81903225806452,0.3139204301075295,34.810270967741936,34.86048629032258,-0.0052317615749876,98.94372599999998,0.4049463751059651,98.36173496774192,99.6189695483871,98.95712419354837,1.257234580645175,98.55561362903224,99.27808291935484,0.01150133668233,0.0011079045233767,0.0049761577991174,-0.0131760956324315,0.0129307359549026,0.0002480013670473,0.0261068315873341,-0.0007004336012738,0.0024994272554343,0.0001159419459385,0.0,0.0,0.0,0.0,0.0,0.0,0.0,0.0,0.0,0.0,0.0,0.0,0.0,0.0,0.0,0.0,0.0,0.0,0.0,0.0,0.0,0.0,0.0,0.0,0.0,0.0,0.0,1564.9645376089704,896.1280177112575,334.7972949524224,3629.173540838921,1432.2743466762772,3294.3762458864985,807.0343083967394,1842.330516295856,-3.393455148234503,3.0125,1.1745344822524368,0.875,5.125,2.90625,4.25,2.015625,3.984375,-0.0594827586206897,0.2760417177419354,match_1_player_1,Lower,0.27550390483870957,0.0005378129032258538,1.001952106281545,Elevated
match_1,player_1,517.0,547.0,76.64301075268818,1.1803376217743289,75.03225806451613,78.90322580645162,76.35483870967741,3.870967741935488,75.56451612903227,77.62903225806451,-0.0720083246618136,26360.714272120054,998.367341499924,24169.90279996029,27341.007101651456,26715.952054320274,3171.1043016911644,25771.073382438142,27137.36847364881,-88.36862472550915,12.008737308456032,4.118766848052051,8.182061369000786,30.561162938818327,10.956549960660896,22.379101569817543,9.7378884736428,12.899159126671911,0.2952131946423136,10.7675135501355,1.6380274951506708,8.240125885129817,14.96648308418568,10.857183601213892,6.726357199055864,9.41919045745757,11.515848741148702,0.0719978594476922,1206.9589700138904,744.4298479326457,503.6705986736858,3751.6995947226783,965.1749730166453,3248.0289960489927,711.4048009199934,1447.659644408407,47.151781940100754,4.679323860527528,0.1177274363887328,4.509676867919282,4.9719163346018895,4.636397313912884,0.4622394666826075,4.600229013515866,4.717689646739197,0.007734804575809,34.90137688172043,0.0330905880747854,34.855096774193555,34.97760967741935,34.89662580645161,0.1225129032257967,34.87177580645161,34.92896532258064,0.0021255495353248,98.60519269032258,0.676147379349919,97.17608851612904,99.6189695483871,98.70639916129034,2.4428810322580574,98.24346324193549,99.14287087903227,-0.003738915540567,0.0014946245632153,0.0056471004066824,-0.005872899568219,0.0239378309990436,7.665688463893304e-05,0.0298107305672626,-0.0013253224535416,0.0021688517095821,0.0002150171105978,0.0,0.0,0.0,0.0,0.0,0.0,0.0,0.0,0.0,0.0,0.0,0.0,0.0,0.0,0.0,0.0,0.0,0.0,0.1625,0.3094013035956162,0.0,1.0,0.0,1.0,0.0,0.125,0.0070355951056729,1660.6657374755148,557.9528726520996,554.4301210830666,2846.40792219813,1688.8703137225457,2291.977801115064,1263.3302391561165,2108.5482825916097,20.360007660720004,3.660416666666667,0.9901445776866236,1.9375,5.3125,4.0,3.375,2.890625,4.359375,-0.001432146829811,0.2991992596774193,match_1_player_1,Lower,0.2736227129032257,0.025576546774193576,1.0934737708826074,Elevated
match_1,player_1,547.0,577.0,80.37526881720427,2.888210673966416,74.25806451612902,83.90322580645162,81.01612903225806,9.64516129032259,79.31451612903226,82.7258064516129,-0.1685959309627212,26695.42360749799,350.4486296323252,25816.57641168323,27164.24038926667,26789.395500804705,1347.663977583441,26518.33516244325,26967.203023972244,21.421601562733866,12.994868338890766,6.003419109921657,7.5551534225019665,32.40585590648533,10.534384249372447,24.85070248398336,9.190293544640516,14.478860149488591,-0.513993489492007,10.583668916536736,1.055894794047674,8.287533539107102,12.803007568094111,10.666837136113296,4.5154740289870094,9.878353658536584,11.185842606121913,-0.0547740895340336,1729.2736686056403,786.2728897614998,596.6021186592168,4050.7757076820894,1531.911349105358,3454.173589022873,1147.0150420875275,2277.9325684688306,-64.13841655533675,4.63614984217406,0.1924234747015266,4.240849815723466,5.029563560004675,4.668064976789178,0.7887137442812087,4.533875336397438,4.716951601742719,0.0120930964390571,35.04524435483871,0.0400485489881719,34.98335483870967,35.0909435483871,35.06131935483871,0.1075887096774295,34.99582338709677,35.08219516129032,0.0039905353618709,99.44146545483868,0.260209393087043,99.05318032258064,99.8228115483871,99.40658487096776,0.7696312258064495,99.169194,99.69713167741936,0.0097400512756068,0.0010641370385539,0.0065035787714528,-0.0233213557100211,0.0147391901595572,0.000137341053913,0.0380605458695783,-0.000778320340953,0.0030077783376511,0.0001859537602436,0.0,0.0,0.0,0.0,0.0,0.0,0.0,0.0,0.0,0.0,0.0,0.0,0.0,0.0,0.0,0.0,0.0,0.0,0.0958333333333333,0.215138844057093,0.0,1.0,0.0,1.0,0.0,0.0625,-0.0011401557285873,1597.035000067062,593.2770491957187,702.9655905294294,3563.3252841750627,1495.279487791538,2860.3596936456333,1204.5730206765547,1825.7987509267527,-27.93995890382694,4.879166666666666,1.281167002731841,1.875,7.375,4.8125,5.5,4.078125,5.78125,-0.0549777530589544,0.4693328548387097,match_1_player_1,Higher,0.2779229096774193,0.1914099451612904,1.6887159658174884,High
match_1,player_1,577.0,607.0,75.50107526881722,0.4918153093709302,74.80645161290323,76.87096774193549,75.46774193548387,2.064516129032256,75.10483870967741,75.7741935483871,0.026581506333201,27302.44342981231,441.814938711838,26780.703651344265,28103.36304684729,27201.15297502908,1322.6593955030255,26883.285785564607,27715.185729941102,18.980380708887747,12.751879376415172,4.4564931528329135,9.221883781049792,27.217634005124168,11.627432467873064,17.995750224074378,10.041532960548498,13.241496935728836,0.2446636751848766,10.911024778831624,1.8396839133284135,8.218579008193485,15.113627252631977,10.779037445638547,6.895048244438492,9.493618995743308,11.82084223146379,0.0621376067357701,1622.9965835966116,659.8771267898846,628.6764153980337,3399.494100245278,1652.572546943927,2770.817684847244,1139.4848373371128,1833.2242822336077,58.08209565547103,4.576258189381377,0.1874895181957696,4.368653508001136,5.111257371506793,4.532338831602775,0.7426038635056562,4.448823200553756,4.6222955428395975,-0.0121589217583111,34.994169982078844,0.1902166549334865,34.5753817204301,35.167135483870965,35.07783870967742,0.5917537634408632,34.87734381720429,35.12720967741936,-0.0146622752879554,99.08213536774194,0.2741763634710296,98.75759396774193,99.7424529032258,98.99321564516129,0.9848589354838708,98.8736593548387,99.22815424193548,-0.0043948312748934,-0.0003690058991925,0.0037890080830562,-0.0096627228512974,0.0079853561651506,0.0003725920015506,0.017648079016448,-0.0019885563530818,0.001120740808144,1.5200637733053598e-05,0.0,0.0,0.0,0.0,0.0,0.0,0.0,0.0,0.0,-0.0039596896343536,0.0151276270628154,-0.071464165789907,0.0215757328218245,0.0,0.0930398986117315,0.0,0.0,-0.0005127414295827,0.19375,0.4294952221309724,0.0,2.0,0.0,2.0,0.0,0.125,0.0060483870967741,1738.782220063567,603.7225225944186,898.1546773632408,2966.288153024511,1635.111221375627,2068.13347566127,1257.1381850065704,2217.909528567517,45.60523054180201,3.68125,1.5717517761508435,0.9375,7.0,3.84375,6.0625,2.390625,4.734375,0.0935066740823136,0.3155598387096773,match_1_player_1,Lower,0.2862555991935483,0.029304239516128983,1.1023708867134343,Elevated
match_1,player_1,607.0,637.0,76.52258064516128,0.9943440467195525,74.83870967741936,78.29032258064515,76.48387096774194,3.4516129032257936,75.67741935483872,77.41129032258064,0.0217589436291182,26273.467134095285,1195.6242983624395,24512.1143923055,27977.5553321514,26100.691165001124,3465.440939845903,25343.752414614235,27606.34421428042,-104.87850349843583,11.22372186101336,2.840145946576036,7.270613690007869,18.354720548268936,11.009677419354835,11.084106858261068,8.687608885017422,12.19202097076802,0.1077452891821988,11.972888844698442,2.5118945460708613,7.236191974822974,16.533193124735217,12.185027256378556,9.297001149912242,9.604553501180174,13.745511127346296,0.1912775156971478,1593.2464121596795,631.2702092136664,680.2301550040888,2853.4279069468166,1585.3182737415652,2173.197751942728,1010.4325503074742,2105.5653254298963,-47.55601527902603,5.144031013253023,0.4558377516889746,4.391334355088591,5.635634370202717,5.274874018037188,1.244300015114126,4.586742593596347,5.565059639255992,0.0487522430453637,35.111609964157715,0.1726350000950228,34.84243225806452,35.31367741935484,35.13897768817204,0.4712451612903194,34.95997889784947,35.280822580645165,-0.0144024222852152,98.79272906774192,0.5707065899261844,97.4757996221198,99.54618916129031,99.0110614032258,2.0703895391705203,98.56305430645162,99.20024603225804,0.0264286711902087,-0.0003046097224235,0.00712389787192,-0.0269464416771576,0.0128371554849931,0.0014291280966595,0.0397835971621507,-0.0011306416104233,0.0030501388497704,-0.0001127189406872,0.0,0.0,0.0,0.0,0.0,0.0,0.0,0.0,0.0,-0.0463834165317185,0.1021643128003077,-0.4057582821986013,0.0,0.0,0.4057582821986013,0.0,0.0,-0.0077438851233322,0.56875,0.8208465523470265,0.0,3.0625,0.09375,3.0625,0.0,0.9375,0.0612486095661846,2334.446652887403,1012.6192170531506,628.320653046836,4995.910696715715,2046.1920031829547,4367.590043668879,1693.228097863151,3071.526027246152,-26.952765106193816,3.364583333333333,1.469045478552504,0.1875,7.125,3.65625,6.9375,2.625,4.0625,0.0424499443826473,0.3107442612903225,match_1_player_1,Lower,0.2978343701612902,0.012909891129032292,1.043345874158315,Elevated
match_1,player_1,637.0,667.0,83.4720430107527,3.962830103642948,77.61290322580646,88.90322580645162,83.95161290322581,11.290322580645151,78.9758064516129,87.62903225806453,0.4408123721697929,24998.87021953444,1314.419238269918,22235.58612608812,27046.330648033952,24788.919619357228,4810.744521945831,24457.833409721345,26103.488546042376,127.5800460061062,15.05580607695478,4.481967091944497,8.923015248585665,24.578681952718146,14.661344648008692,15.65566670413248,11.143312352478365,17.645280712599753,-0.2109598303561352,8.735210776416519,2.166114256093124,5.79038627252632,14.42328874901652,8.01063560750815,8.632902476490198,7.276706801918248,9.514074969090704,-0.1275243668433979,1884.7591532631743,517.0618680905787,773.3597154807007,3009.014633333052,2009.961691236325,2235.654917852351,1492.3446777775987,2191.3503761330257,29.213689896776398,5.21174515109393,0.2023073393229308,4.974609205893417,5.61463893958155,5.130609767756582,0.6400297336881327,5.072180195813467,5.33257937444303,-0.012710389687597,34.77263698924731,0.0373931149239031,34.70559139784946,34.830706451612905,34.78064516129032,0.1251150537634444,34.73739784946237,34.80341935483871,0.0017241656799063,98.2809243967742,0.6334699628342283,96.9532164516129,99.20191751612904,98.42225141935484,2.2487010645161405,97.91823206451612,98.70819851612902,-0.0109729439664147,-0.0040112108326719,0.0082659558474509,-0.0375549724878809,0.0079873859439034,-0.0017997398657418,0.0455423584317843,-0.0075495226343682,0.0001124143460282,-8.750391730491382e-05,0.0,0.0,0.0,0.0,0.0,0.0,0.0,0.0,0.0,-0.0954775255549095,0.2219995790531424,-0.8851427291841166,0.0,0.0,0.8851427291841166,-0.0002850787496387,0.0,0.0161089128756987,0.5291666666666667,0.8401905372526453,0.0,3.5625,0.125,3.5625,0.0,0.734375,-0.0595661846496107,2012.5286253467905,1013.272863155351,723.1361077118895,4538.707683872285,1804.4824831784092,3815.571576160396,1257.648476787852,2458.9240632849437,7.42436868220516,1.775,1.6129036962364902,0.0,6.25,1.40625,6.25,0.78125,1.859375,-0.085428253615128,0.3418126048387097,match_1_player_1,Moderate,0.3045580153225806,0.03725458951612909,1.1223234577381584,High
match_1,player_1,667.0,697.0,80.4,3.2048523737336603,73.7741935483871,87.41935483870967,80.30645161290322,13.645161290322562,78.75806451612904,81.24193548387096,-0.3327568265815082,26279.60633640096,990.870412836736,24117.38851531056,27267.605563071247,26608.607611503,3150.2170477606887,25555.574613032997,27147.65524300755,16.36466421265671,16.368704486661734,8.419865890147927,8.774826720617437,43.1010078303548,13.031973324341536,34.32618110973736,9.825797787643774,20.95012832040763,-0.4453677034900191,9.10672483234049,2.197036370116868,5.385365853658536,13.159105129069724,8.915943576486455,7.773739275411188,7.33493031358885,10.641099527930765,-0.1120562890283641,1619.7534542872963,516.6871139562501,692.006801841977,2681.97777650466,1586.5053202063596,1989.9709746626831,1227.3869875436708,2006.023326506482,15.309830323046723,4.664171600515007,0.1606520577844574,4.402764417746104,5.168309590362416,4.629996582182276,0.7655451726163118,4.579596719333396,4.701129452156065,-0.0093380786054367,34.87460752688172,0.0350249200494877,34.81006451612903,34.931612903225805,34.87946774193548,0.121548387096773,34.84553225806451,34.900596774193545,0.0029369670003694,99.64333003548386,0.130007712785944,99.27886229032258,99.8058,99.65187516129032,0.5269377096774264,99.54011975,99.76276122580646,0.0018593970863665,0.0009157400713724,0.004498220415705,-0.0099700714441055,0.0139531396957025,0.0009378806808441,0.023923211139808,-0.0018924838809427,0.0030267547894362,-0.0001545497389761,0.0,0.0,0.0,0.0,0.0,0.0,0.0,0.0,0.0,-0.0156094066218469,0.0438690167351041,-0.2165242393672148,0.0,0.0,0.2165242393672148,-1.6991141359199237e-07,0.0,0.0022619259120293,0.13125,0.4006342627634336,0.0,2.0,0.0,2.0,0.0,0.0,0.0200917686318131,877.209467468764,587.4210900016784,27.172559097035204,2233.858252438151,770.1819623592492,2206.685693341116,488.773170777773,1241.5589861724975,-13.71964206083549,1.7645833333333334,1.5062961034899112,0.0,5.5,1.375,5.5,0.625,2.796875,0.0051585094549498,0.4955745064516129,match_1_player_1,Higher,0.3103305161290322,0.1852439903225807,1.5969248291571758,High
match_1,player_1,697.0,727.0,70.04946236559138,1.8496324002857536,67.0,73.32258064516128,70.56451612903226,6.322580645161281,68.41935483870967,71.46774193548386,-0.1429401844343187,24564.91823755463,1357.1817896579682,22199.634114376604,26841.97594246764,25113.549560909687,4642.341828091037,23305.62222020713,25613.03526455996,79.10502203187903,10.094993011184984,3.359502653251568,6.587828294181559,20.00793917991693,9.157911842943314,13.420110885735372,7.8071688490502416,11.24088147472408,-0.2551144654608567,10.744123622369008,1.2381072658874368,7.8592053501180175,12.80778726911693,10.929789067475928,4.948581918998913,9.826456483458845,11.83841395889042,0.049659604868389,1557.0047236923756,478.7320788229841,650.4564406476068,2397.4265980170308,1464.9423375365334,1746.970157369424,1214.493982143428,1942.0138060606564,-33.48161166684002,5.015524986469151,0.3468619209394906,4.5712129603070055,5.645861068087793,4.873941742690058,1.0746481077807877,4.737638039696831,5.346791335031114,-0.0319587632723703,34.895735053763445,0.0404486941267745,34.80837419354839,34.95945161290322,34.90632580645161,0.1510774193548343,34.876787903225804,34.92431532258065,-0.0015889138469274,98.75380157096772,0.6566272348787922,97.4903044516129,99.8058,98.4561369032258,2.315495548387105,98.34435708064515,99.45353542741934,-0.0701972262872746,-0.0001755369858573,0.0015921139783544,-0.0030282230840415,0.0033281702355478,-0.0007131841128664,0.0063563933195893,-0.0010962310494808,0.0006789628511931,-4.704236007345986e-06,0.0,0.0,0.0,0.0,0.0,0.0,0.0,0.0,0.0,-0.0371638142082185,0.0759939063665051,-0.3040784155487024,0.0,0.0,0.3040784155487024,-0.0228236746619934,0.0,-0.0011721577407025,0.5,0.8688773887417411,0.0,3.5,0.03125,3.5,0.0,0.59375,-0.0608453837597331,1765.4337607506502,651.3492229532407,771.4066408934418,3859.10167181477,1602.0059555704552,3087.695030921328,1320.410291745572,2130.8909750275443,44.98874478798403,4.522916666666666,1.351357663508156,1.8125,6.9375,4.78125,5.125,3.8125,5.375,0.1051307007786428,0.4025211887096774,match_1_player_1,Higher,0.3131520499999999,0.0893691387096775,1.2853857693400939,High
match_1,player_1,727.0,757.0,71.09462365591396,3.19078769926025,67.25806451612902,76.96774193548387,69.77419354838709,9.709677419354849,68.76612903225805,73.62096774193549,0.2651548315332441,26874.66315595333,393.9926128342206,26121.224047508465,27637.68040800725,26884.29732241329,1516.4563604987889,26616.195210548747,27074.347876311844,27.037075114239983,10.608344750967069,2.6848416508769968,6.822187254130606,16.460544752912966,10.605045239968527,9.63835749878236,8.018819780075681,12.564272383426866,0.190716123019042,10.654201333434402,1.136177866806893,8.177182797441521,13.078528342887116,10.624478070737196,4.901345545445595,10.117032426660671,11.353964819602115,0.0065048753380647,1624.877309108353,527.0563042047268,826.3084804854661,3019.3405059945944,1514.9044632395485,2193.0320255091283,1275.576391419724,1806.680640874486,1.526433768384576,4.928630164846759,0.1697632975089577,4.658299438279711,5.272885830310264,4.924626131512185,0.614586392030553,4.7894222128745865,5.052932024988497,-0.0131403482963319,35.017515591397846,0.2870806266642499,34.43462365591398,35.36412580645161,35.03502096774194,0.9295021505376296,34.87056290322581,35.28766290322581,0.0179627468991817,98.73797124516128,0.7793692370107987,96.9532164516129,99.68434158064515,98.99551412903224,2.7311251290322502,98.6220710967742,99.21273285483868,0.071783906232729,-0.0014715192429615,0.0044190240903204,-0.0129627176544245,0.0088999092902424,-0.0014015434515822,0.0218626269446669,-0.003368388055428,0.0009716242779464,-0.00012759073662,0.0,0.0,0.0,0.0,0.0,0.0,0.0,0.0,0.0,-0.2145756909274948,0.207061952627831,-0.8338325965385713,0.0,-0.1971193189277461,0.8338325965385713,-0.3107804747699844,-0.0089241238847269,-0.0065579098334175,0.3395833333333333,0.4500241120083332,0.0,2.0,0.125,2.0,0.0625,0.5,0.0087736373748609,1751.32974769538,796.233734538549,691.6022520632669,3936.269083146197,1374.420525619837,3244.66683108293,1167.7222279750276,2125.4221879710376,-11.168594315552957,4.683333333333334,1.5270932810044346,1.3125,6.9375,5.15625,5.625,3.8125,5.875,-0.0327308120133482,0.4099977258064515,match_1_player_1,Higher,0.3131520499999999,0.09684567580645159,1.3092608712171983,High
match_1,player_1,757.0,787.0,74.08279569892473,1.1173181350929202,71.51612903225805,75.96774193548387,74.03225806451613,4.451612903225822,73.39516129032259,75.0241935483871,-0.0453478775700621,27162.709517688963,1031.370977614427,25018.07058920092,28392.34615657365,27549.414192257893,3374.2755673727297,26484.055170612824,28001.07105018715,92.6304641984781,13.160624257400004,2.93449540890917,9.560469821288072,20.75360233786669,12.57355353646774,11.19313251657862,10.713998926560908,14.182741732907092,-0.1996678252303096,10.093019929633977,2.113917352586791,7.175402735701347,15.913379041624516,9.903821512869506,8.73797630592317,8.211149907468155,11.58468584916264,-0.0177122305084729,2306.6142776454944,490.0836185314112,1039.6214888898835,2992.77098176158,2436.789113235424,1953.1494928716968,2081.232897736124,2718.762127211871,35.29574590991998,4.949922336605076,0.2134962898339886,4.527592671684587,5.255081552247248,4.941986967080643,0.7274888805626603,4.770005561420425,5.167936744700736,-0.0212215356823526,34.920181182795694,0.0984470694955081,34.84877741935484,35.22067419354838,34.87725806451613,0.3718967741935444,34.864544354838706,34.901193548387084,-0.0085609451361738,98.11036177419356,0.5014826286211497,97.17334141935484,99.11992422580644,98.14087901612902,1.9465828064516015,97.7921365403226,98.47997351612902,-0.0002440285765573,-0.0019017109847194,0.0043115470776297,-0.0095583018232531,0.0070583759869642,-0.0019745356652351,0.0166166778102173,-0.0041392215766257,0.0005145878682677,5.015163290551665e-05,0.0,0.0,0.0,0.0,0.0,0.0,0.0,0.0,0.0,-0.0079301691439892,0.0270137833939359,-0.1368700615631934,0.0,0.0,0.1368700615631934,0.0,0.0,0.0014692393381579,0.3208333333333333,0.9096893547921852,0.0,4.0,0.0,4.0,0.0,0.0,-0.0577308120133482,1585.915534618106,935.5827442092996,191.67511870445765,3895.706701728577,1538.4936614308117,3704.03158302412,813.7220388885938,2112.948340787218,-57.39421011867119,3.9604166666666663,1.8686338685580497,1.25,7.5625,3.78125,6.3125,2.21875,5.375,0.0696190211345938,0.4764586903225807,match_1_player_1,Higher,0.3286862217741935,0.14777246854838721,1.4495852237149949,High
