match_id,player,player_folder,event_type,event_timestamp,heart_rate_before,heart_rate_immediate,heart_rate_after,heart_rate_recovery,heart_rate_change_immediate,heart_rate_change_after,heart_rate_change_recovery,gsr_before,gsr_immediate,gsr_after,gsr_recovery,gsr_change_immediate,gsr_change_after,gsr_change_recovery,emg_right_hand_before,emg_right_hand_immediate,emg_right_hand_after,emg_right_hand_recovery,emg_right_hand_change_immediate,emg_right_hand_change_after,emg_right_hand_change_recovery,emg_left_hand_before,emg_left_hand_immediate,emg_left_hand_after,emg_left_hand_recovery,emg_left_hand_change_immediate,emg_left_hand_change_after,emg_left_hand_change_recovery,gaze_movement_before,gaze_movement_immediate,gaze_movement_after,gaze_movement_recovery,gaze_movement_change_immediate,gaze_movement_change_after,gaze_movement_change_recovery,pupil_diameter_before,pupil_diameter_immediate,pupil_diameter_after,pupil_diameter_recovery,pupil_diameter_change_immediate,pupil_diameter_change_after,pupil_diameter_change_recovery,facial_temperature_before,facial_temperature_immediate,facial_temperature_after,facial_temperature_recovery,facial_temperature_change_immediate,facial_temperature_change_after,facial_temperature_change_recovery,spo2_before,spo2_immediate,spo2_after,spo2_recovery,spo2_change_immediate,spo2_change_after,spo2_change_recovery,head_rotation_x_before,head_rotation_x_immediate,head_rotation_x_after,head_rotation_x_recovery,head_rotation_x_change_immediate,head_rotation_x_change_after,head_rotation_x_change_recovery,head_rotation_y_before,head_rotation_y_immediate,head_rotation_y_after,head_rotation_y_recovery,head_rotation_y_change_immediate,head_rotation_y_change_after,head_rotation_y_change_recovery,head_rotation_z_before,head_rotation_z_immediate,head_rotation_z_after,head_rotation_z_recovery,head_rotation_z_change_immediate,head_rotation_z_change_after,head_rotation_z_change_recovery,keyboard_activity_before,keyboard_activity_immediate,keyboard_activity_after,keyboard_activity_recovery,keyboard_activity_change_immediate,keyboard_activity_change_after,keyboard_activity_change_recovery,mouse_movement_before,mouse_movement_immediate,mouse_movement_after,mouse_movement_recovery,mouse_movement_change_immediate,mouse_movement_change_after,mouse_movement_change_recovery,mouse_clicks_before,mouse_clicks_immediate,mouse_clicks_after,mouse_clicks_recovery,mouse_clicks_change_immediate,mouse_clicks_change_after,mouse_clicks_change_recovery
match_0,1,player_1,kill,339.39,75.46935483870969,77.73709677419356,77.51720430107527,77.51720430107527,2.267741935483869,2.0478494623655763,2.0478494623655763,26371.152845322533,26788.61947780365,27812.00040267341,28089.78640210568,417.4666324811187,1440.8475573508767,1718.6335567831484,7.802798643353324,7.3923081101956,7.938580984755256,10.374696070604806,-0.41049053315772355,0.13578234140193235,2.571897427251482,9.799134681430118,9.640127496640087,9.385136241064645,8.622223149260915,-0.15900718479003118,-0.4139984403654733,-1.1769115321692034,1280.5365778605842,1245.4435010522534,1312.273299082213,1518.636877252286,-35.09307680833081,31.73672122162884,238.1002993917018,4.983110054148032,5.040617081320916,5.013405407852887,5.007044205618484,0.057507027172884584,0.030295353704855366,0.02393415147045186,34.98118319892473,34.98507701612903,35.118087562724014,35.151901505376344,0.003893817204300376,0.13690436379928173,0.17071830645161157,98.50058131451614,99.02343378870967,98.63782294516128,98.57691531612905,0.5228524741935274,0.13724163064513561,0.07633400161290638,0.0003669589951344,-0.00092417475795125,-0.0003338078847216,-0.0003338078847216,-0.00129113375308565,-0.0007007668798559999,-0.0007007668798559999,0.0,0.0,0.0,0.0,0.0,0.0,0.0,0.0,0.0,0.0,0.0,0.0,0.0,0.0,0.16145833333333331,0.17708333333333331,0.19375,0.0708333333333333,0.015625,0.03229166666666669,-0.09062500000000001,1693.9441372930942,1733.784458309437,1419.124948088992,1148.3096936174331,39.84032101634284,-274.81918920410226,-545.634443675661,3.341666666666667,4.5,2.0791666666666666,1.875,1.1583333333333332,-1.2625000000000002,-1.4666666666666668
match_0,1,player_1,assist,458.217,77.55053763440861,74.55,72.08387096774192,72.40537634408602,-3.000537634408616,-5.466666666666697,-5.145161290322591,27967.247654478102,28227.48912707786,27372.66070011648,27372.66070011648,260.2414725997587,-594.5869543616209,-594.5869543616209,10.528603003125033,9.880278920965388,9.078047906285514,8.511985548763674,-0.648324082159645,-1.450555096839519,-2.0166174543613593,8.565164956448395,8.71403093355198,8.458247291654057,8.458247291654057,0.1488659771035845,-0.10691766479433795,-0.10691766479433795,2050.4916475731106,1478.227832655136,1340.7698718149477,1390.7897721831391,-572.2638149179747,-709.721775758163,-659.7018753899715,4.982398991161483,4.943826048402286,5.007044205618484,5.026924995257624,-0.038572942759197204,0.024645214457000186,0.0445260040961406,35.150947634408595,35.16785460573476,35.24579258064516,35.20276311827957,0.01690697132616492,0.09484494623656303,0.05181548387097479,98.62852259032258,98.6266189096774,98.57310795483872,98.37724394516128,-0.0019036806451708799,-0.0554146354838565,-0.2512786451612925,0.00012430720295195,-0.0019187953579745498,-0.0011157309265626,-0.0011157309265626,-0.0020431025609265,-0.0012400381295145499,-0.0012400381295145499,0.0,0.0,0.0,0.0,0.0,0.0,0.0,0.0,0.0,0.0,0.0,0.0,0.0,0.0,0.06041666666666665,0.1614583333333333,0.2729166666666666,0.19375,0.10104166666666664,0.21249999999999994,0.13333333333333336,929.1672242132768,1144.0646534713185,1578.1045521335166,1675.5772417795326,214.8974292580417,648.9373279202398,746.4100175662559,3.546875,3.404166666666667,1.6041666666666667,2.972916666666667,-0.14270833333333321,-1.9427083333333333,-0.5739583333333331
match_0,1,player_1,kill,476.512,77.51720430107527,72.42150537634407,72.705376344086,72.40537634408602,-5.095698924731195,-4.811827956989262,-5.111827956989245,28089.78640210568,27519.731980728204,27023.46640476142,27372.66070011648,-570.0544213774774,-1066.3199973442606,-717.1257019892,10.374696070604806,10.201109909082962,9.91807873032204,8.511985548763674,-0.17358616152184325,-0.4566173402827651,-1.862710521841132,8.622223149260915,8.420053950769923,8.189200044862908,8.458247291654057,-0.20216919849099213,-0.43302310439800706,-0.1639758576068573,1518.636877252286,1389.294329936467,1215.0652361255177,1390.7897721831391,-129.34254731581905,-303.5716411267683,-127.84710506914689,5.007044205618484,4.9058658650515525,4.915806259871122,5.026924995257624,-0.10117834056693109,-0.09123794574736177,0.019880789639140417,35.151901505376344,35.19884704301075,35.26093994623656,35.20276311827957,0.04694553763440723,0.10903844086021763,0.05086161290322622,98.57691531612905,98.69563125645162,98.59769925161291,98.37724394516128,0.11871594032257349,0.020783935483862592,-0.19967137096776355,-0.0003338078847216,-0.00229002086244935,-0.00063787982244335,-0.0011157309265626,-0.00195621297772775,-0.00030407193772175,-0.000781923041841,0.0,0.0,0.0,0.0,0.0,0.0,0.0,0.0,0.0,0.0,0.0,0.0,0.0,0.0,0.0708333333333333,0.2010416666666666,0.22604166666666664,0.19375,0.1302083333333333,0.15520833333333334,0.1229166666666667,1148.3096936174331,1229.8459027098106,1278.5822475328187,1675.5772417795326,81.53620909237748,130.27255391538552,527.2675481620995,1.875,1.5968749999999998,2.2885416666666667,2.972916666666667,-0.2781250000000002,0.4135416666666667,1.0979166666666669
match_0,1,player_1,kill,569.397,72.40537634408602,73.1,76.2258064516129,75.46559139784945,0.694623655913972,3.8204301075268745,3.0602150537634287,27372.66070011648,27228.888847192968,26809.114337761734,27323.40181811398,-143.7718529235135,-563.5463623547475,-49.258882002501196,8.511985548763674,8.891350759018934,12.305349294165987,9.660349949901482,0.37936521025526027,3.7933637454023135,1.1483644011378082,8.209749260050204,8.536011746252697,8.971776305300974,9.081278378146756,0.3262624862024932,0.76202704525077,0.8715291180965519,1340.7698718149477,1560.9342528610541,2054.8129989771983,1533.4845524105272,220.16438104610643,714.0431271622506,192.71468059557947,4.968434597837179,5.023214241241874,4.959476118737925,4.840958352829281,0.05477964340469477,-0.00895847909925429,-0.12747624500789811,35.24579258064516,35.110390591397845,35.038523252688165,35.15805376344086,-0.13540198924731328,-0.20726932795699327,-0.08773881720429699,98.37724394516128,98.3608525421659,98.65550256048385,98.78917446344084,-0.016391402995381554,0.2782586153225708,0.4119305182795614,-0.0011157309265626,0.00058547583709255,0.00112681121480745,-0.0003166650729678,0.00170120676365515,0.00224254214137005,0.0007990658535947999,0.0,0.0,0.0,0.0,0.0,0.0,0.0,0.0,0.0,0.0,0.0,0.0,0.0,0.0,0.1291666666666666,0.16145833333333331,0.12916666666666665,0.19375,0.03229166666666672,5.551115123125783e-17,0.06458333333333341,1649.6806680052218,1853.2291038360006,1492.7009039786412,1651.4972716648767,203.54843583077877,-156.9797640265806,1.816603659654902,2.777083333333333,3.075,3.5979166666666664,3.6375,0.29791666666666705,0.8208333333333333,0.860416666666667
match_0,1,player_1,kill,677.099,75.46559139784945,74.95913978494625,75.57795698924731,70.38387096774191,-0.5064516129032057,0.11236559139786095,-5.081720430107538,27323.40181811398,27276.20452193184,26786.358744897174,27306.07777416834,-47.197296182141145,-537.0430732168061,-17.32404394563855,9.660349949901482,9.850073575890843,9.786431626333275,9.257544569906884,0.18972362598936066,0.12608167643179335,-0.4028053799945983,9.081278378146756,8.717567844342037,7.567546144191503,8.84172219532369,-0.36371053380471885,-1.5137322339552526,-0.23955618282306546,1533.4845524105272,1448.592797022628,1998.8956157093637,1748.6365442349447,-84.89175538789914,465.41106329883655,215.15199182441756,4.840958352829281,4.983644708076393,4.845140811414543,4.742382323397218,0.14268635524711204,0.004182458585262339,-0.09857602943206256,35.15805376344086,35.300328010752686,35.32191190860215,35.45111747311827,0.1422742473118248,0.16385814516128505,0.293063709677412,98.78917446344084,99.08553295430107,98.91785210806452,98.56278311935483,0.2963584908602286,0.1286776446236786,-0.2263913440860108,-0.0003166650729678,-0.00070762292106955,-0.00037922099630810014,0.0012573294542976,-0.00039095784810175006,-6.255592334030016e-05,0.0015739945272654,0.0,0.0,0.0,0.0,0.0,0.0,0.0,0.0,0.0,0.0,0.0,0.0,0.0,0.0,0.19375,0.4708333333333333,0.3552083333333333,0.0916666666666666,0.27708333333333335,0.1614583333333333,-0.1020833333333334,1651.4972716648767,1616.2157777232499,1502.0192341613144,1423.104184541006,-35.28149394162688,-149.4780375035623,-228.39308712387083,3.6375,2.515625,1.6666666666666667,1.9708333333333332,-1.1218750000000002,-1.9708333333333334,-1.666666666666667
match_0,1,player_1,death,723.009,74.95913978494625,75.57795698924731,70.38387096774191,73.43870967741937,0.6188172043010667,-4.575268817204332,-1.5204301075268774,27276.20452193184,26786.358744897174,27306.07777416834,25795.23942951424,-489.84577703466493,29.873252236502594,-1480.9650924175985,9.850073575890843,9.786431626333275,9.257544569906884,9.607557526833686,-0.0636419495575673,-0.592529005983959,-0.24251604905715674,8.717567844342037,7.567546144191503,8.84172219532369,8.954265043244195,-1.1500217001505337,0.1241543509816534,0.23669719890215823,1448.592797022628,1998.8956157093637,1748.6365442349447,1700.132708523442,550.3028186867357,300.0437472123167,251.53991150081401,4.983644708076393,4.845140811414543,4.742382323397218,4.693262197610959,-0.1385038966618497,-0.2412623846791746,-0.2903825104654336,35.300328010752686,35.32191190860215,35.45111747311827,35.21737252688171,0.021583897849460243,0.1507894623655872,-0.0829554838709754,99.08553295430107,98.91785210806452,98.56278311935483,98.85235844193546,-0.16768084623655,-0.5227498349462394,-0.2331745123656077,-0.00070762292106955,-0.00037922099630810014,0.0012573294542976,0.0004159662526388,0.0003284019247614499,0.00196495237536715,0.0011235891737083501,0.0,0.0,0.0,0.0,0.0,0.0,0.0,0.0,0.0,0.0,0.0,0.0,0.0,0.0,0.4708333333333333,0.3552083333333333,0.0916666666666666,0.0645833333333333,-0.11562500000000003,-0.3791666666666667,-0.40625,1616.2157777232499,1502.0192341613144,1423.104184541006,1523.1360459686796,-114.19654356193541,-193.11159318224395,-93.07973175457028,2.515625,1.6666666666666667,1.9708333333333332,1.9708333333333332,-0.8489583333333333,-0.5447916666666668,-0.5447916666666668
match_0,1,player_1,death,809.812,70.38387096774191,72.76666666666667,74.2940860215054,73.19784946236558,2.3827956989247525,3.91021505376348,2.813978494623669,27306.07777416834,26138.000138466414,25382.580966139365,25795.23942951424,-1168.0776357019276,-1923.4968080289764,-1510.838344654101,9.257544569906884,9.432551048370286,10.345129046908157,9.96899735721923,0.175006478463402,1.0875844770012737,0.7114527873123464,8.84172219532369,8.130556117542742,8.184332933217668,8.931855059661904,-0.7111660777809483,-0.6573892621060224,0.09013286433821399,1748.6365442349447,1792.9895950951604,1861.7817146061084,1344.2072428750068,44.35305086021572,113.14517037116366,-404.4293013599379,4.742382323397218,4.753513548778494,4.5398200846788965,4.510679462312505,0.0111312253812752,-0.2025622387183219,-0.23170286108471316,35.45111747311827,35.38507163978494,35.09844828853046,35.092501756272405,-0.0660458333333338,-0.3526691845878105,-0.35861571684586835,98.56278311935483,98.70757078064514,98.95378346021504,99.04704885222736,0.14478766129030873,0.3910003408602023,0.4842657328725295,0.0012573294542976,-0.00025059954228345003,-0.00026453032804325,0.0004159662526388,-0.0015079289965810498,-0.00152185978234085,-0.0008413632016587999,0.0,0.0,0.0,0.0,0.0,0.0,0.0,0.0,0.0,0.0,0.0,0.0,0.0,0.0,0.0916666666666666,0.16145833333333334,0.03229166666666665,0.24375,0.06979166666666674,-0.059374999999999956,0.1520833333333334,1423.104184541006,1662.6755614616577,1311.566384793008,1457.2379640482263,239.5713769206518,-111.53779974799795,34.133779507220424,1.9708333333333332,1.4364583333333332,2.597916666666667,2.933333333333333,-0.534375,0.6270833333333337,0.9624999999999999
match_0,1,player_1,assist,810.373,70.04408602150536,72.76666666666667,73.43870967741937,70.73279569892472,2.722580645161301,3.3946236559140033,0.6887096774193537,27331.10814407687,26138.000138466414,25795.23942951424,26148.596004843013,-1193.1080056104547,-1535.8687145626282,-1182.5121392338551,8.926816610371883,9.432551048370286,9.96899735721923,9.556190410144973,0.5057344379984023,1.0421807468473467,0.6293737997730897,8.897993619283943,8.130556117542742,8.931855059661904,8.855064219044351,-0.7674375017412007,0.03386144037796157,-0.042929400239591686,1655.5925068682454,1792.9895950951604,1700.132708523442,1307.6789160973308,137.397088226915,44.5402016551966,-347.91359077091465,4.755529561339122,4.753513548778494,4.5640631961015234,4.537371329207014,-0.002016012560628333,-0.19146636523759852,-0.21815823213210805,35.501944112903224,35.38507163978494,35.092501756272405,35.137074534050186,-0.11687247311828486,-0.4094423566308194,-0.36486957885303894,98.5907296,98.70757078064514,98.8544955434716,98.95077219784949,0.11684118064513882,0.2637659434715971,0.36004259784948545,0.0010786734027266,-0.00025059954228345003,0.0004159662526388,-0.0013895336683719499,-0.00132927294501005,-0.0006627071500877999,-0.00246820707109855,0.0,0.0,0.0,0.0,0.0,0.0,0.0,0.0,0.0,0.0,0.0,0.0,0.0,0.0,0.19374999999999998,0.16145833333333334,0.0645833333333333,0.34791666666666665,-0.032291666666666635,-0.12916666666666668,0.15416666666666667,1338.767639820135,1662.6755614616577,1802.215076954636,1746.0868182017452,323.90792164152276,463.4474371345011,407.3191783816103,2.513541666666667,1.4364583333333332,2.933333333333333,2.471875,-1.0770833333333336,0.41979166666666634,-0.04166666666666696
match_0,1,player_1,assist,821.404,70.04408602150536,72.76666666666667,73.43870967741937,70.73279569892472,2.722580645161301,3.3946236559140033,0.6887096774193537,27331.10814407687,26138.000138466414,25795.23942951424,26148.596004843013,-1193.1080056104547,-1535.8687145626282,-1182.5121392338551,8.926816610371883,9.432551048370286,9.96899735721923,9.556190410144973,0.5057344379984023,1.0421807468473467,0.6293737997730897,8.897993619283943,8.130556117542742,8.931855059661904,8.855064219044351,-0.7674375017412007,0.03386144037796157,-0.042929400239591686,1655.5925068682454,1792.9895950951604,1700.132708523442,1307.6789160973308,137.397088226915,44.5402016551966,-347.91359077091465,4.755529561339122,4.753513548778494,4.5640631961015234,4.537371329207014,-0.002016012560628333,-0.19146636523759852,-0.21815823213210805,35.501944112903224,35.38507163978494,35.092501756272405,35.137074534050186,-0.11687247311828486,-0.4094423566308194,-0.36486957885303894,98.5907296,98.70757078064514,98.8544955434716,98.95077219784949,0.11684118064513882,0.2637659434715971,0.36004259784948545,0.0010786734027266,-0.00025059954228345003,0.0004159662526388,-0.0013895336683719499,-0.00132927294501005,-0.0006627071500877999,-0.00246820707109855,0.0,0.0,0.0,0.0,0.0,0.0,0.0,0.0,0.0,0.0,0.0,0.0,0.0,0.0,0.19374999999999998,0.16145833333333334,0.0645833333333333,0.34791666666666665,-0.032291666666666635,-0.12916666666666668,0.15416666666666667,1338.767639820135,1662.6755614616577,1802.215076954636,1746.0868182017452,323.90792164152276,463.4474371345011,407.3191783816103,2.513541666666667,1.4364583333333332,2.933333333333333,2.471875,-1.0770833333333336,0.41979166666666634,-0.04166666666666696
match_0,1,player_1,assist,821.735,70.04408602150536,72.76666666666667,73.43870967741937,70.73279569892472,2.722580645161301,3.3946236559140033,0.6887096774193537,27331.10814407687,26138.000138466414,25795.23942951424,26148.596004843013,-1193.1080056104547,-1535.8687145626282,-1182.5121392338551,8.926816610371883,9.432551048370286,9.96899735721923,9.556190410144973,0.5057344379984023,1.0421807468473467,0.6293737997730897,8.897993619283943,8.130556117542742,8.931855059661904,8.855064219044351,-0.7674375017412007,0.03386144037796157,-0.042929400239591686,1655.5925068682454,1792.9895950951604,1700.132708523442,1307.6789160973308,137.397088226915,44.5402016551966,-347.91359077091465,4.755529561339122,4.753513548778494,4.5640631961015234,4.537371329207014,-0.002016012560628333,-0.19146636523759852,-0.21815823213210805,35.501944112903224,35.38507163978494,35.092501756272405,35.137074534050186,-0.11687247311828486,-0.4094423566308194,-0.36486957885303894,98.5907296,98.70757078064514,98.8544955434716,98.95077219784949,0.11684118064513882,0.2637659434715971,0.36004259784948545,0.0010786734027266,-0.00025059954228345003,0.0004159662526388,-0.0013895336683719499,-0.00132927294501005,-0.0006627071500877999,-0.00246820707109855,0.0,0.0,0.0,0.0,0.0,0.0,0.0,0.0,0.0,0.0,0.0,0.0,0.0,0.0,0.19374999999999998,0.16145833333333334,0.0645833333333333,0.34791666666666665,-0.032291666666666635,-0.12916666666666668,0.15416666666666667,1338.767639820135,1662.6755614616577,1802.215076954636,1746.0868182017452,323.90792164152276,463.4474371345011,407.3191783816103,2.513541666666667,1.4364583333333332,2.933333333333333,2.471875,-1.0770833333333336,0.41979166666666634,-0.04166666666666696
match_0,1,player_1,assist,895.524,73.43870967741937,70.73279569892472,73.19784946236558,,-2.7059139784946495,-0.24086021505378596,,25795.23942951424,26148.596004843013,25741.80228754355,,353.35657532877303,-53.4371419706913,,9.96899735721923,9.556190410144973,9.143383463070716,,-0.412806947074257,-0.825613894148514,,8.931855059661904,8.855064219044351,8.7782733784268,,-0.07679084061755326,-0.15358168123510474,,1700.132708523442,1307.6789160973308,1344.2072428750068,,-392.45379242611125,-355.9254656484352,,4.5640631961015234,4.537371329207014,4.510679462312505,,-0.02669186689450953,-0.05338373378901817,,35.092501756272405,35.137074534050186,35.18164731182796,,0.04457277777778046,0.08914555555555381,,98.8544955434716,98.95077219784949,99.04704885222736,,0.09627665437788835,0.1925533087557625,,0.0004159662526388,-0.0013895336683719499,-0.0035006673395134,,-0.0018054999210107498,-0.0039166335921522,,0.0,0.0,0.0,,0.0,0.0,,0.0,0.0,0.0,,0.0,0.0,,0.0645833333333333,0.34791666666666665,0.24375,,0.2833333333333333,0.1791666666666667,,1802.215076954636,1746.0868182017452,1457.2379640482263,,-56.128258752890815,-344.97711290640973,,2.933333333333333,2.471875,2.0104166666666665,,-0.4614583333333333,-0.9229166666666666,
match_0,1,player_1,assist,903.386,70.85322580645162,70.73279569892472,73.19784946236558,,-0.12043010752690009,2.3446236559139635,,26175.31457582836,26148.596004843013,25741.80228754355,,-26.71857098534747,-433.5122882848118,,10.52584896210093,9.556190410144973,9.143383463070716,,-0.9696585519559573,-1.3824654990302143,,8.996836867127977,8.855064219044351,8.7782733784268,,-0.14177264808362544,-0.21856348870117692,,1485.6416489215483,1307.6789160973308,1344.2072428750068,,-177.96273282421748,-141.43440604654143,,4.4752205839241785,4.537371329207014,4.510679462312505,,0.062150745282835373,0.03545887838832673,,35.03601290322581,35.137074534050186,35.18164731182796,,0.10106163082437547,0.14563440860214882,,98.9548520109831,98.95077219784949,99.04704885222736,,-0.004079813133614607,0.09219684124425953,,0.00056878312770415,-0.0013895336683719499,-0.0035006673395134,,-0.0019583167960761,-0.00406945046721755,,0.0,0.0,0.0,,0.0,0.0,,0.0,0.0,0.0,,0.0,0.0,,0.2583333333333333,0.34791666666666665,0.24375,,0.08958333333333335,-0.01458333333333331,,1427.9266824933218,1746.0868182017452,1457.2379640482263,,318.16013570842347,29.311281554904554,,3.6135416666666664,2.471875,2.0104166666666665,,-1.1416666666666666,-1.603125,
match_0,1,player_1,assist,906.922,70.85322580645162,70.73279569892472,73.19784946236558,,-0.12043010752690009,2.3446236559139635,,26175.31457582836,26148.596004843013,25741.80228754355,,-26.71857098534747,-433.5122882848118,,10.52584896210093,9.556190410144973,9.143383463070716,,-0.9696585519559573,-1.3824654990302143,,8.996836867127977,8.855064219044351,8.7782733784268,,-0.14177264808362544,-0.21856348870117692,,1485.6416489215483,1307.6789160973308,1344.2072428750068,,-177.96273282421748,-141.43440604654143,,4.4752205839241785,4.537371329207014,4.510679462312505,,0.062150745282835373,0.03545887838832673,,35.03601290322581,35.137074534050186,35.18164731182796,,0.10106163082437547,0.14563440860214882,,98.9548520109831,98.95077219784949,99.04704885222736,,-0.004079813133614607,0.09219684124425953,,0.00056878312770415,-0.0013895336683719499,-0.0035006673395134,,-0.0019583167960761,-0.00406945046721755,,0.0,0.0,0.0,,0.0,0.0,,0.0,0.0,0.0,,0.0,0.0,,0.2583333333333333,0.34791666666666665,0.24375,,0.08958333333333335,-0.01458333333333331,,1427.9266824933218,1746.0868182017452,1457.2379640482263,,318.16013570842347,29.311281554904554,,3.6135416666666664,2.471875,2.0104166666666665,,-1.1416666666666666,-1.603125,
match_0,1,player_1,kill,909.928,70.85322580645162,70.73279569892472,73.19784946236558,,-0.12043010752690009,2.3446236559139635,,26175.31457582836,26148.596004843013,25741.80228754355,,-26.71857098534747,-433.5122882848118,,10.52584896210093,9.556190410144973,9.143383463070716,,-0.9696585519559573,-1.3824654990302143,,8.996836867127977,8.855064219044351,8.7782733784268,,-0.14177264808362544,-0.21856348870117692,,1485.6416489215483,1307.6789160973308,1344.2072428750068,,-177.96273282421748,-141.43440604654143,,4.4752205839241785,4.537371329207014,4.510679462312505,,0.062150745282835373,0.03545887838832673,,35.03601290322581,35.137074534050186,35.18164731182796,,0.10106163082437547,0.14563440860214882,,98.9548520109831,98.95077219784949,99.04704885222736,,-0.004079813133614607,0.09219684124425953,,0.00056878312770415,-0.0013895336683719499,-0.0035006673395134,,-0.0019583167960761,-0.00406945046721755,,0.0,0.0,0.0,,0.0,0.0,,0.0,0.0,0.0,,0.0,0.0,,0.2583333333333333,0.34791666666666665,0.24375,,0.08958333333333335,-0.01458333333333331,,1427.9266824933218,1746.0868182017452,1457.2379640482263,,318.16013570842347,29.311281554904554,,3.6135416666666664,2.471875,2.0104166666666665,,-1.1416666666666666,-1.603125,
match_0,1,player_1,assist,912.604,70.85322580645162,70.73279569892472,73.19784946236558,,-0.12043010752690009,2.3446236559139635,,26175.31457582836,26148.596004843013,25741.80228754355,,-26.71857098534747,-433.5122882848118,,10.52584896210093,9.556190410144973,9.143383463070716,,-0.9696585519559573,-1.3824654990302143,,8.996836867127977,8.855064219044351,8.7782733784268,,-0.14177264808362544,-0.21856348870117692,,1485.6416489215483,1307.6789160973308,1344.2072428750068,,-177.96273282421748,-141.43440604654143,,4.4752205839241785,4.537371329207014,4.510679462312505,,0.062150745282835373,0.03545887838832673,,35.03601290322581,35.137074534050186,35.18164731182796,,0.10106163082437547,0.14563440860214882,,98.9548520109831,98.95077219784949,99.04704885222736,,-0.004079813133614607,0.09219684124425953,,0.00056878312770415,-0.0013895336683719499,-0.0035006673395134,,-0.0019583167960761,-0.00406945046721755,,0.0,0.0,0.0,,0.0,0.0,,0.0,0.0,0.0,,0.0,0.0,,0.2583333333333333,0.34791666666666665,0.24375,,0.08958333333333335,-0.01458333333333331,,1427.9266824933218,1746.0868182017452,1457.2379640482263,,318.16013570842347,29.311281554904554,,3.6135416666666664,2.471875,2.0104166666666665,,-1.1416666666666666,-1.603125,
match_1,1,player_1,kill,368.559,75.0763440860215,78.73279569892472,79.4505376344086,69.76451612903226,3.6564516129032114,4.3741935483870975,-5.311827956989248,28936.734895723577,25858.289479014835,26105.649702922237,27530.8557897766,-3078.4454167087424,-2831.08519280134,-1405.8791059469768,9.587558350433671,11.610847087050956,9.096251565795049,9.451908600139848,2.0232887366172854,-0.4913067846386223,-0.13564975029382254,10.989822608845055,10.56705370627031,9.65715578022309,9.04448053941476,-0.4227689025747452,-1.3326668286219654,-1.9453420694302945,1126.2158034704912,1792.4470972457957,1666.9992731583764,1562.172947290929,666.2312937753045,540.7834696878851,435.95714382043775,4.71411035185875,4.992587600506134,4.762517507729922,4.657080619343761,0.2784772486473841,0.04840715587117206,-0.05702973251498911,34.8809070250896,34.803241881720425,34.974023440860215,35.07306419354839,-0.07766514336917396,0.09311641577061636,0.19215716845879172,98.87999814569892,98.96999359354838,98.33010270967742,98.94372599999998,0.08999544784946067,-0.5498954360215009,0.06372785430106376,0.0009522697127234,0.0006633182506623034,1.4317786372606763e-05,-0.0004066616194657,-0.0002889514620610966,-0.0009379519263507932,-0.0013589313321890999,0.0,0.0,0.0,0.0,0.0,0.0,0.0,-0.2145546610617983,-0.21620921348002264,-3.485106767011849e-11,0.0,-0.0016545524182243476,0.21455466102694723,0.2145546610617983,0.45208333333333334,0.4770833333333333,0.19375,0.19375,0.024999999999999967,-0.2583333333333333,-0.2583333333333333,1386.3624600594846,1602.8217823293967,1372.380931226896,1564.9645376089704,216.45932226991204,-13.981528832588538,178.60207754948578,4.451041666666667,2.711458333333333,3.0479166666666666,3.0479166666666666,-1.739583333333334,-1.4031250000000002,-1.4031250000000002
match_1,1,player_1,death,375.23,75.0763440860215,78.73279569892472,79.4505376344086,69.76451612903226,3.6564516129032114,4.3741935483870975,-5.311827956989248,28936.734895723577,25858.289479014835,26105.649702922237,27530.8557897766,-3078.4454167087424,-2831.08519280134,-1405.8791059469768,9.587558350433671,11.610847087050956,9.096251565795049,9.451908600139848,2.0232887366172854,-0.4913067846386223,-0.13564975029382254,10.989822608845055,10.56705370627031,9.65715578022309,9.04448053941476,-0.4227689025747452,-1.3326668286219654,-1.9453420694302945,1126.2158034704912,1792.4470972457957,1666.9992731583764,1562.172947290929,666.2312937753045,540.7834696878851,435.95714382043775,4.71411035185875,4.992587600506134,4.762517507729922,4.657080619343761,0.2784772486473841,0.04840715587117206,-0.05702973251498911,34.8809070250896,34.803241881720425,34.974023440860215,35.07306419354839,-0.07766514336917396,0.09311641577061636,0.19215716845879172,98.87999814569892,98.96999359354838,98.33010270967742,98.94372599999998,0.08999544784946067,-0.5498954360215009,0.06372785430106376,0.0009522697127234,0.0006633182506623034,1.4317786372606763e-05,-0.0004066616194657,-0.0002889514620610966,-0.0009379519263507932,-0.0013589313321890999,0.0,0.0,0.0,0.0,0.0,0.0,0.0,-0.2145546610617983,-0.21620921348002264,-3.485106767011849e-11,0.0,-0.0016545524182243476,0.21455466102694723,0.2145546610617983,0.45208333333333334,0.4770833333333333,0.19375,0.19375,0.024999999999999967,-0.2583333333333333,-0.2583333333333333,1386.3624600594846,1602.8217823293967,1372.380931226896,1564.9645376089704,216.45932226991204,-13.981528832588538,178.60207754948578,4.451041666666667,2.711458333333333,3.0479166666666666,3.0479166666666666,-1.739583333333334,-1.4031250000000002,-1.4031250000000002
match_1,1,player_1,death,648.203,76.01182795698925,79.99731182795699,80.4,71.09462365591396,3.985483870967741,4.388172043010755,-4.917204301075287,26787.955281953797,25636.168676814865,24998.87021953444,26874.66315595333,-1151.786605138932,-1789.0850624193554,86.70787399953406,11.987800618714266,13.13976396898407,15.05580607695478,10.608344750967069,1.1519633502698046,3.068005458240515,-1.3794558677471969,11.441956811765033,10.35404981055748,9.10672483234049,10.654201333434402,-1.0879070012075527,-2.3352319794245435,-0.7877554783306309,1608.1214978781454,1739.0027827114268,1619.7534542872963,1624.877309108353,130.88128483328137,11.631956409150916,16.755811230207655,4.8601446013172005,5.177888082173476,5.015524986469151,4.949922336605076,0.3177434808562758,0.1553803851519504,0.08977773528787569,35.05288997311828,34.94212347670251,34.87460752688172,34.920181182795694,-0.11076649641577063,-0.1782824462365653,-0.13270879032258875,98.93743221774193,98.53682673225805,98.75380157096772,98.73797124516128,-0.4006054854838794,-0.18363064677420482,-0.19946097258065265,-0.000336807810808,-0.0021579102775477,-0.0001755369858573,-0.0014715192429615,-0.0018211024667397,0.00016127082495070002,-0.0011347114321535,0.0,0.0,0.0,0.0,0.0,0.0,0.0,-0.02517155308303605,-0.070930471043314,-0.0371638142082185,-0.0371638142082185,-0.04575891796027795,-0.011992261125182452,-0.011992261125182452,0.38125,0.5489583333333333,0.5,0.3395833333333333,0.16770833333333335,0.11875000000000002,-0.041666666666666685,2036.614436475485,2173.487639117097,1765.4337607506502,1751.32974769538,136.8732026416119,-271.1806757248348,-285.28468878010494,3.5229166666666663,2.5697916666666663,1.775,4.522916666666666,-0.953125,-1.7479166666666663,1.0
match_1,1,player_1,kill,649.094,76.01182795698925,79.99731182795699,80.4,71.09462365591396,3.985483870967741,4.388172043010755,-4.917204301075287,26787.955281953797,25636.168676814865,24998.87021953444,26874.66315595333,-1151.786605138932,-1789.0850624193554,86.70787399953406,11.987800618714266,13.13976396898407,15.05580607695478,10.608344750967069,1.1519633502698046,3.068005458240515,-1.3794558677471969,11.441956811765033,10.35404981055748,9.10672483234049,10.654201333434402,-1.0879070012075527,-2.3352319794245435,-0.7877554783306309,1608.1214978781454,1739.0027827114268,1619.7534542872963,1624.877309108353,130.88128483328137,11.631956409150916,16.755811230207655,4.8601446013172005,5.177888082173476,5.015524986469151,4.949922336605076,0.3177434808562758,0.1553803851519504,0.08977773528787569,35.05288997311828,34.94212347670251,34.87460752688172,34.920181182795694,-0.11076649641577063,-0.1782824462365653,-0.13270879032258875,98.93743221774193,98.53682673225805,98.75380157096772,98.73797124516128,-0.4006054854838794,-0.18363064677420482,-0.19946097258065265,-0.000336807810808,-0.0021579102775477,-0.0001755369858573,-0.0014715192429615,-0.0018211024667397,0.00016127082495070002,-0.0011347114321535,0.0,0.0,0.0,0.0,0.0,0.0,0.0,-0.02517155308303605,-0.070930471043314,-0.0371638142082185,-0.0371638142082185,-0.04575891796027795,-0.011992261125182452,-0.011992261125182452,0.38125,0.5489583333333333,0.5,0.3395833333333333,0.16770833333333335,0.11875000000000002,-0.041666666666666685,2036.614436475485,2173.487639117097,1765.4337607506502,1751.32974769538,136.8732026416119,-271.1806757248348,-285.28468878010494,3.5229166666666663,2.5697916666666663,1.775,4.522916666666666,-0.953125,-1.7479166666666663,1.0
match_1,1,player_1,kill,654.704,76.52258064516128,81.93602150537635,75.2247311827957,71.09462365591396,5.413440860215061,-1.2978494623655905,-5.4279569892473205,26273.467134095285,25639.2382779677,25422.262286977795,26874.66315595333,-634.2288561275855,-851.2048471174894,601.1960218580462,12.751879376415172,15.712255281808257,13.231848748923358,10.608344750967069,2.960375905393086,0.4799693725081866,-2.143534625448103,10.911024778831624,8.920967804378504,9.92542422735475,10.654201333434402,-1.99005697445312,-0.9856005514768746,-0.256823445397222,1622.9965835966116,1752.2563037752352,1588.379088989836,1624.877309108353,129.25972017862364,-34.61749460677561,1.8807255117415025,5.144031013253023,4.9379583758044685,4.839848293492079,4.949922336605076,-0.2060726374485542,-0.30418271976094413,-0.1941086766479465,34.994169982078844,34.82362225806452,34.88517129032258,34.920181182795694,-0.17054772401432672,-0.10899869175626264,-0.07398879928314983,98.79272906774192,98.96212721612903,99.19856580322579,98.73797124516128,0.16939814838711698,0.40583673548387367,-0.054757822580640436,-0.0003690058991925,-0.0015477353806497497,0.00037010154275755,-0.0014715192429615,-0.0011787294814572498,0.00073910744195005,-0.001102513343769,0.0,0.0,0.0,0.0,0.0,0.0,0.0,-0.0463834165317185,-0.0555434660883782,-0.0263866104150327,-0.0371638142082185,-0.009160049556659701,0.0199968061166858,0.009219602323499998,0.5291666666666667,0.3302083333333333,0.315625,0.3395833333333333,-0.19895833333333335,-0.21354166666666669,-0.18958333333333338,2012.5286253467905,1444.8690464077772,1321.321614109707,1751.32974769538,-567.6595789390133,-691.2070112370834,-261.1988776514104,3.364583333333333,1.7697916666666667,3.14375,4.522916666666666,-1.5947916666666664,-0.22083333333333321,1.1583333333333332
match_1,1,player_1,death,766.612,70.57204301075268,72.58870967741935,74.08279569892473,77.20215053763441,2.0166666666666657,3.5107526881720474,6.63010752688173,25719.790696753982,27018.68633682115,28409.143052438503,27977.479542916262,1298.8956400671668,2689.352355684521,2257.6888461622802,10.351668881076026,11.884484504183536,10.581233343324218,11.633278148112923,1.5328156231075099,0.2295644622481916,1.281609267036897,10.699162477901705,10.37361063153419,10.093019929633977,10.4918356374808,-0.32555184636751555,-0.6061425482677283,-0.20732684042090455,1590.9410164003643,1965.7457933769238,1961.9481192251872,1855.7708995272935,374.8047769765594,371.0071028248228,264.8298831269292,4.972077575657956,4.939276250725918,4.745013618469343,4.745013618469343,-0.0328013249320378,-0.22706395718861216,-0.22706395718861216,34.95662532258065,34.96884838709677,35.06257247311828,35.273835394265234,0.012223064516120985,0.10594715053763082,0.3172100716845847,98.74588640806451,98.42416650967742,98.66085514193546,98.66085514193546,-0.32171989838708726,-0.08503126612905021,-0.08503126612905021,-0.0008235281144093999,-0.00168661511384045,-0.0001323898779722,0.0007791520231667,-0.00086308699943105,0.0006911382364371999,0.0016026801375760998,0.0,0.0,0.0,0.0,0.0,0.0,0.0,-0.12586975256785665,-0.11125293003574199,-0.0079301691439892,-0.034450015826614,0.01461682253211466,0.11793958342386746,0.09141973674124265,0.4197916666666667,0.3302083333333333,0.1291666666666666,0.19375,-0.08958333333333335,-0.2906250000000001,-0.22604166666666667,1758.3817542230152,1668.6226411567432,1585.915534618106,2138.999953495394,-89.759113066272,-172.46621960490916,380.6181992723789,4.603125,4.321875,3.9604166666666663,3.633333333333333,-0.28125,-0.6427083333333341,-0.9697916666666675
match_1,1,player_1,death,867.967,74.37096774193547,79.92849462365592,72.77150537634408,74.31827956989247,5.557526881720449,-1.5994623655913927,-0.052688172043005466,28409.143052438503,27317.01785194346,28438.869736614783,27637.572062397903,-1092.1252004950438,29.726684176279377,-771.5709900406,10.581233343324218,12.865793635406305,11.709530966454649,11.785783784796374,2.2845602920820873,1.1282976231304307,1.204550441472156,10.4918356374808,9.390498549378252,8.195345049325182,10.335247435049594,-1.1013370881025484,-2.296490588155619,-0.15658820243120708,1827.2644029234464,1695.6612289451887,1956.4259592225271,2057.081018917761,-131.6031739782577,129.16155629908076,229.8166159943146,4.745013618469343,4.816285504252157,4.589525266885255,4.639106404409871,0.07127188578281363,-0.15548835158408814,-0.10590721405947257,35.273835394265234,35.14111937275986,34.954115860215055,35.04431655913979,-0.13271602150537376,-0.3197195340501793,-0.22951883512544669,98.66085514193546,98.10763776290324,99.06953626989247,99.21908373870968,-0.553217379032219,0.40868112795700995,0.558228596774228,0.0007791520231667,0.00218966160386205,0.0015032162288611999,-0.0008532684073057,0.0014105095806953502,0.0007240642056944999,-0.0016324204304724,0.0,0.0,0.0,0.0,0.0,0.0,0.0,-0.0117461868294902,-0.13982737581708896,-0.017225007913307,0.0,-0.12808118898759877,-0.005478821083816801,0.0117461868294902,0.1291666666666666,0.4197916666666667,0.23541666666666666,0.2770833333333333,0.2906250000000001,0.10625000000000007,0.1479166666666667,2138.999953495394,1535.7252742131946,1174.94257361596,1417.434552300925,-603.2746792821995,-964.0573798794339,-721.5654011944691,3.4604166666666667,3.534375,3.2635416666666663,3.977083333333333,0.07395833333333313,-0.19687500000000036,0.5166666666666662
match_1,1,player_1,death,953.96,74.31827956989247,76.19354838709677,77.1790322580645,78.63763440860215,1.8752688172043008,2.8607526881720275,4.319354838709685,27977.479542916262,26371.80211778875,26931.292434646977,26225.01280689605,-1605.6774251275128,-1046.187108269285,-1752.466736020211,11.633278148112923,12.17431369627116,13.006736138939587,15.251524347460938,0.5410355481582361,1.3734579908266635,3.6182461993480146,8.405255922720517,10.569434299715596,10.6085254415766,9.817129188991164,2.1641783769950784,2.2032695188560822,1.4118732662706464,2057.081018917761,1837.18139860881,1572.8278919259214,1662.6220922668758,-219.89962030895094,-484.2531269918395,-394.45892665088513,4.639106404409871,4.897019123253457,4.766596381914332,4.871144865010131,0.2579127188435857,0.12748997750446112,0.23203846060026034,35.0066959139785,35.12474363799283,35.140022177419354,35.09860306451613,0.11804772401433183,0.13332626344085696,0.09190715053763654,99.1087683688172,99.28153571021505,96.71472070752687,98.45727290645162,0.17276734139785788,-2.3940476612903296,-0.651495462365574,-0.0001849218342715,-0.0014666296430978,-0.00010142874540170003,0.0006504109165023,-0.0012817078088263,8.349308886979997e-05,0.0008353327507737999,0.0,0.0,0.0,0.0,0.0,0.0,0.0,0.0,-0.00342793402379035,-0.0954102375688082,0.0,-0.00342793402379035,-0.0954102375688082,0.0,0.2770833333333333,0.41041666666666665,0.21354166666666666,0.35625,0.13333333333333336,-0.06354166666666664,0.07916666666666672,1417.434552300925,1597.4352734812296,1881.2635963829136,2052.4901813350384,180.0007211803047,463.82904408198874,635.0556290341135,3.633333333333333,4.208333333333333,4.129166666666666,2.65,0.5750000000000002,0.49583333333333357,-0.983333333333333
match_1,1,player_1,death,1055.579,78.06881720430107,78.88924731182797,77.03064516129032,77.79892473118281,0.8204301075269029,-1.0381720430107464,-0.2698924731182615,26225.01280689605,27028.62970445065,28255.452998129593,25773.60687169504,803.6168975545988,2030.4401912335416,-451.40593520101174,13.319890358880262,16.833765496397326,13.946745439654384,12.64196653184783,3.513875137517065,0.6268550807741224,-0.6779238270324317,10.335247435049594,8.562486713152872,8.782188532676592,10.256532828038605,-1.7727607218967218,-1.5530589023730013,-0.07871460701098876,1483.0336915849673,1887.09832426606,1988.8006857439614,1659.4773933825247,404.0646326810927,505.76699415899407,176.44370179755742,4.871144865010131,4.697114895227332,4.614925928838058,4.924579204642238,-0.17402996978279894,-0.2562189361720728,0.05343433963210664,35.09860306451613,35.099403091397846,35.16416134408602,35.17430419354837,0.0008000268817127676,0.0655582795698848,0.07570112903223958,98.45727290645162,99.0153568639785,99.33830364999997,99.31000796129032,0.5580839575268755,0.8810307435483509,0.8527350548387034,-0.000288067032803,0.0007033973933384999,0.00114524700420105,-0.0010657913812873,0.0009914644261415,0.00143331403700405,-0.0007777243484843,0.0,0.0,0.0,0.0,0.0,0.0,0.0,-0.0068558680475807,0.0,0.00153183048119215,0.0,0.0068558680475807,0.008387698528772851,0.0068558680475807,0.35625,0.46770833333333334,0.35,0.4416666666666666,0.11145833333333333,-0.006250000000000033,0.08541666666666659,2052.4901813350384,2016.104814883708,1679.3854718580117,1379.0514952836456,-36.385366451330356,-373.10470947702674,-673.4386860513928,3.977083333333333,2.4,2.9104166666666664,3.158333333333333,-1.577083333333333,-1.0666666666666664,-0.8187499999999996
match_1,1,player_1,assist,1056.074,78.06881720430107,78.88924731182797,77.03064516129032,77.79892473118281,0.8204301075269029,-1.0381720430107464,-0.2698924731182615,26225.01280689605,27028.62970445065,28255.452998129593,25773.60687169504,803.6168975545988,2030.4401912335416,-451.40593520101174,13.319890358880262,16.833765496397326,13.946745439654384,12.64196653184783,3.513875137517065,0.6268550807741224,-0.6779238270324317,10.335247435049594,8.562486713152872,8.782188532676592,10.256532828038605,-1.7727607218967218,-1.5530589023730013,-0.07871460701098876,1483.0336915849673,1887.09832426606,1988.8006857439614,1659.4773933825247,404.0646326810927,505.76699415899407,176.44370179755742,4.871144865010131,4.697114895227332,4.614925928838058,4.924579204642238,-0.17402996978279894,-0.2562189361720728,0.05343433963210664,35.09860306451613,35.099403091397846,35.16416134408602,35.17430419354837,0.0008000268817127676,0.0655582795698848,0.07570112903223958,98.45727290645162,99.0153568639785,99.33830364999997,99.31000796129032,0.5580839575268755,0.8810307435483509,0.8527350548387034,-0.000288067032803,0.0007033973933384999,0.00114524700420105,-0.0010657913812873,0.0009914644261415,0.00143331403700405,-0.0007777243484843,0.0,0.0,0.0,0.0,0.0,0.0,0.0,-0.0068558680475807,0.0,0.00153183048119215,0.0,0.0068558680475807,0.008387698528772851,0.0068558680475807,0.35625,0.46770833333333334,0.35,0.4416666666666666,0.11145833333333333,-0.006250000000000033,0.08541666666666659,2052.4901813350384,2016.104814883708,1679.3854718580117,1379.0514952836456,-36.385366451330356,-373.10470947702674,-673.4386860513928,3.977083333333333,2.4,2.9104166666666664,3.158333333333333,-1.577083333333333,-1.0666666666666664,-0.8187499999999996
match_1,1,player_1,kill,1126.811,77.03064516129032,76.35967741935485,77.79892473118281,75.57849462365591,-0.6709677419354705,0.7682795698924849,-1.4521505376344095,28255.452998129593,26910.94547436703,25492.836964419475,26454.769858060576,-1344.5075237625642,-2762.6160337101173,-1800.683140069017,13.946745439654384,13.252129212253703,10.235360733330838,9.16986827644774,-0.6946162274006813,-3.711384706323546,-4.776877163206644,8.782188532676592,10.6237582341288,9.931928605532068,10.25318561235949,1.841569701452208,1.1497400728554759,1.4709970796828973,1988.8006857439614,1704.1407100046172,1590.2259731765996,1590.2259731765996,-284.6599757393442,-398.57471256736176,-398.57471256736176,4.614925928838058,5.0016021876560774,4.981644499860615,4.819266217790205,0.38667625881801904,0.3667185710225569,0.20434028895214684,35.16416134408602,35.201211881720425,35.11995645161291,35.26250494623655,0.03705053763440702,-0.0442048924731111,0.0983436021505284,99.33830364999997,99.29464891182795,99.38460496958524,98.94984766774192,-0.043654738172023144,0.046301319585268175,-0.38845598225805134,0.00114524700420105,-0.00023507959618260005,-0.0010657913812873,-5.390062317463917e-05,-0.00138032660038365,-0.00221103838548835,-0.0011991476273756892,0.0,0.0,0.0,0.0,0.0,0.0,0.0,0.00153183048119215,-0.1345060871628522,0.0,0.0,-0.13603791764404435,-0.00153183048119215,-0.00153183048119215,0.35,0.8041666666666667,0.6458333333333334,0.3854166666666667,0.4541666666666667,0.2958333333333334,0.03541666666666671,1679.3854718580117,1561.4436690354585,1608.379487452734,1691.0024256641768,-117.9418028225532,-71.00598440527756,11.616953806165156,2.9104166666666664,3.414583333333333,2.441666666666667,2.441666666666667,0.5041666666666664,-0.46874999999999956,-0.46874999999999956
match_1,1,player_1,assist,1133.252,77.79892473118281,79.68548387096774,78.57526881720429,75.57849462365591,1.8865591397849357,0.7763440860214814,-2.2204301075268944,27973.3998342146,25528.995829192256,25633.221918057257,26454.769858060576,-2444.404005022345,-2340.177916157343,-1518.629976154025,13.862291892659576,12.048826312995207,9.70261450488929,9.16986827644774,-1.8134655796643688,-4.1596773877702855,-4.692423616211835,10.256532828038605,9.18945982430567,8.659932306962205,10.25318561235949,-1.0670730037329346,-1.5966005210764003,-0.003347215679115223,1748.8040266267096,1637.9440780728748,1558.6550513478198,1590.2259731765996,-110.85994855383478,-190.1489752788898,-158.57805345011002,4.706766932231583,5.110508323861405,4.953111852251427,4.819266217790205,0.40374139162982203,0.24634492001984398,0.11249928555862265,35.17430419354837,35.12157629032258,35.09440241935484,35.26250494623655,-0.05272790322579368,-0.07990177419353017,0.08820075268817362,99.4861313451613,99.3980696532258,99.34730646543778,98.94984766774192,-0.08806169193549351,-0.13882487972351498,-0.5362836774193767,0.0005956321889221,-0.00195816908761015,-0.0011190589646455,-5.390062317463917e-05,-0.00255380127653225,-0.0017146911535676,-0.0006495328120967391,0.0,0.0,0.0,0.0,0.0,0.0,0.0,0.0,-0.13603791764404435,0.0,0.0,-0.13603791764404435,0.0,0.0,0.4416666666666666,0.61875,0.35833333333333334,0.3854166666666667,0.17708333333333343,-0.08333333333333326,-0.05624999999999991,1743.8358427872713,1537.1791667701732,1469.4509891029047,1691.0024256641768,-206.6566760170981,-274.3848536843666,-52.83341712309448,3.158333333333333,2.1875,1.8291666666666666,2.441666666666667,-0.9708333333333332,-1.3291666666666666,-0.7166666666666663
match_1,1,player_1,death,1152.492,76.35967741935485,79.68548387096774,75.57849462365591,76.30430107526881,3.325806451612891,-0.781182795698939,-0.055376344086042195,26910.94547436703,25528.995829192256,25773.60687169504,28100.657757337493,-1381.9496451747727,-1137.338602671989,1189.712282970464,13.252129212253703,12.048826312995207,10.235360733330838,9.34548879195811,-1.203302899258496,-3.016768478922865,-3.9066404202955933,10.6237582341288,9.18945982430567,9.931928605532068,10.702335203261638,-1.4342984098231302,-0.6918296285967322,0.07857696913283796,1704.1407100046172,1637.9440780728748,1590.2259731765996,1533.8995426536712,-66.19663193174233,-113.91473682801757,-170.24116735094594,5.0016021876560774,5.110508323861405,4.924579204642238,4.819266217790205,0.10890613620532719,-0.07702298301383959,-0.1823359698658722,35.201211881720425,35.12157629032258,35.11995645161291,35.35713451612904,-0.07963559139784593,-0.08125543010751812,0.15592263440861132,99.29464891182795,99.3980696532258,99.31000796129032,98.74918735053764,0.10342074139785495,0.015359049462375651,-0.5454615612903098,-0.00023507959618260005,-0.00195816908761015,-5.390062317463917e-05,-5.390062317463917e-05,-0.00172308949142755,0.00018117897300796087,0.00018117897300796087,0.0,0.0,0.0,0.0,0.0,0.0,0.0,-0.1345060871628522,-0.13603791764404435,0.0,0.0,-0.0015318304811921535,0.1345060871628522,0.1345060871628522,0.8041666666666667,0.61875,0.3229166666666667,0.3854166666666667,-0.18541666666666667,-0.48125,-0.41875,1561.4436690354585,1537.1791667701732,1608.379487452734,1905.4368964745624,-24.264502265285273,46.93581841727564,343.993227439104,3.414583333333333,2.1875,2.05625,3.5854166666666667,-1.2270833333333329,-1.358333333333333,0.17083333333333384
match_1,1,player_1,assist,1158.242,76.35967741935485,79.68548387096774,75.57849462365591,76.30430107526881,3.325806451612891,-0.781182795698939,-0.055376344086042195,26910.94547436703,25528.995829192256,25773.60687169504,28100.657757337493,-1381.9496451747727,-1137.338602671989,1189.712282970464,13.252129212253703,12.048826312995207,10.235360733330838,9.34548879195811,-1.203302899258496,-3.016768478922865,-3.9066404202955933,10.6237582341288,9.18945982430567,9.931928605532068,10.702335203261638,-1.4342984098231302,-0.6918296285967322,0.07857696913283796,1704.1407100046172,1637.9440780728748,1590.2259731765996,1533.8995426536712,-66.19663193174233,-113.91473682801757,-170.24116735094594,5.0016021876560774,5.110508323861405,4.924579204642238,4.819266217790205,0.10890613620532719,-0.07702298301383959,-0.1823359698658722,35.201211881720425,35.12157629032258,35.11995645161291,35.35713451612904,-0.07963559139784593,-0.08125543010751812,0.15592263440861132,99.29464891182795,99.3980696532258,99.31000796129032,98.74918735053764,0.10342074139785495,0.015359049462375651,-0.5454615612903098,-0.00023507959618260005,-0.00195816908761015,-5.390062317463917e-05,-5.390062317463917e-05,-0.00172308949142755,0.00018117897300796087,0.00018117897300796087,0.0,0.0,0.0,0.0,0.0,0.0,0.0,-0.1345060871628522,-0.13603791764404435,0.0,0.0,-0.0015318304811921535,0.1345060871628522,0.1345060871628522,0.8041666666666667,0.61875,0.3229166666666667,0.3854166666666667,-0.18541666666666667,-0.48125,-0.41875,1561.4436690354585,1537.1791667701732,1608.379487452734,1905.4368964745624,-24.264502265285273,46.93581841727564,343.993227439104,3.414583333333333,2.1875,2.05625,3.5854166666666667,-1.2270833333333329,-1.358333333333333,0.17083333333333384
match_1,1,player_1,kill,1205.456,77.79892473118281,74.92741935483872,75.29032258064517,77.3688172043011,-2.871505376344089,-2.508602150537641,-0.43010752688171294,25492.836964419475,25973.803411240027,27334.85894712653,28214.948036192483,480.96644682055194,1842.0219827070541,2722.111071773008,10.235360733330838,9.879992153794277,9.361798349390796,9.34548879195811,-0.3553685795365613,-0.8735623839400422,-0.8898719413727285,9.931928605532068,10.09255710894578,10.477760407810564,10.702335203261638,0.1606285034137116,0.5458318022784958,0.7704065977295702,1590.2259731765996,1706.1070939239316,1677.9438786624676,1533.8995426536712,115.88112074733203,87.71790548586796,-56.326430522928376,4.981644499860615,4.868428081651402,4.787238940616197,4.860727152779028,-0.11321641820921347,-0.1944055592444185,-0.12091734708158697,35.11995645161291,35.19123069892473,35.32613811827956,35.35713451612904,0.07127424731181975,0.2061816666666516,0.23717806451612944,99.38460496958524,98.94969563655914,98.73231698563748,98.74918735053764,-0.43490933302609847,-0.6522879839477582,-0.6354176190476011,-0.0010657913812873,0.0002792641207336804,-0.00012049053053036959,0.0012533347836303,0.0013450555020209805,0.0009453008507569304,0.0023191261649176,0.0,0.0,0.0,0.0,0.0,0.0,0.0,0.0,-0.004361564583361,-0.004361564583361,0.0,-0.004361564583361,-0.004361564583361,0.0,0.6458333333333334,0.484375,0.3541666666666667,0.3875,-0.16145833333333337,-0.2916666666666667,-0.25833333333333336,1608.379487452734,1649.6909565584556,1798.2196610693695,1910.3345513624129,41.31146910572147,189.8401736166354,301.95506390967876,2.441666666666667,2.2489583333333334,2.8208333333333333,4.041666666666667,-0.19270833333333348,0.37916666666666643,1.6
match_1,1,player_1,assist,1343.662,79.08924731182795,80.91989247311828,78.03763440860216,74.8978494623656,1.8306451612903345,-1.051612903225788,-4.191397849462348,28100.657757337493,28477.970745805076,28398.125230840866,29155.854905320703,377.31298846758364,297.4674735033732,1055.19714798321,12.46096447456812,12.18151903128668,10.444227855018344,8.986382122031445,-0.27944544328144083,-2.0167366195497767,-3.4745823525366752,12.582403323682255,11.619322333263561,10.180177831272122,9.820814929453798,-0.9630809904186943,-2.4022254924101336,-2.7615883942284576,1488.113147105085,1642.9569258095917,1706.040564191434,1614.2804238687695,154.84377870450658,217.9274170863489,126.16727676368441,5.100570664381534,4.976500846082071,4.8217882482377625,4.90013501003803,-0.12406981829946329,-0.2787824161437715,-0.2004356543435044,35.1349811827957,35.19175075268817,35.452452688172045,35.21015827956989,0.056769569892473726,0.3174715053763464,0.07517709677419049,98.49223475698923,98.37711812096774,98.76356963440861,99.33142314408602,-0.11511663602149724,0.27133487741937756,0.8391883870967831,0.0012533347836303,0.00086899845305795,0.0012398469975974501,0.0011234681967595,-0.00038433633057234997,-1.348778603284988e-05,-0.00012986658687079997,0.0,0.0,0.0,0.0,0.0,0.0,0.0,0.0,-0.03121159855849395,-0.0672754832787002,-0.0721277694404125,-0.03121159855849395,-0.0672754832787002,-0.0721277694404125,0.9708333333333332,1.4208333333333332,0.48124999999999996,0.3791666666666666,0.44999999999999996,-0.48958333333333326,-0.5916666666666666,1910.3345513624129,1719.108748904302,1638.9813301781764,1783.475768312169,-191.22580245811082,-271.3532211842364,-126.8587830502438,4.427083333333333,4.094791666666667,3.6958333333333337,3.629166666666667,-0.33229166666666643,-0.7312499999999993,-0.7979166666666662
match_1,1,player_1,kill,1345.654,79.08924731182795,80.91989247311828,78.03763440860216,74.8978494623656,1.8306451612903345,-1.051612903225788,-4.191397849462348,28100.657757337493,28477.970745805076,28398.125230840866,29155.854905320703,377.31298846758364,297.4674735033732,1055.19714798321,12.46096447456812,12.18151903128668,10.444227855018344,8.986382122031445,-0.27944544328144083,-2.0167366195497767,-3.4745823525366752,12.582403323682255,11.619322333263561,10.180177831272122,9.820814929453798,-0.9630809904186943,-2.4022254924101336,-2.7615883942284576,1488.113147105085,1642.9569258095917,1706.040564191434,1614.2804238687695,154.84377870450658,217.9274170863489,126.16727676368441,5.100570664381534,4.976500846082071,4.8217882482377625,4.90013501003803,-0.12406981829946329,-0.2787824161437715,-0.2004356543435044,35.1349811827957,35.19175075268817,35.452452688172045,35.21015827956989,0.056769569892473726,0.3174715053763464,0.07517709677419049,98.49223475698923,98.37711812096774,98.76356963440861,99.33142314408602,-0.11511663602149724,0.27133487741937756,0.8391883870967831,0.0012533347836303,0.00086899845305795,0.0012398469975974501,0.0011234681967595,-0.00038433633057234997,-1.348778603284988e-05,-0.00012986658687079997,0.0,0.0,0.0,0.0,0.0,0.0,0.0,0.0,-0.03121159855849395,-0.0672754832787002,-0.0721277694404125,-0.03121159855849395,-0.0672754832787002,-0.0721277694404125,0.9708333333333332,1.4208333333333332,0.48124999999999996,0.3791666666666666,0.44999999999999996,-0.48958333333333326,-0.5916666666666666,1910.3345513624129,1719.108748904302,1638.9813301781764,1783.475768312169,-191.22580245811082,-271.3532211842364,-126.8587830502438,4.427083333333333,4.094791666666667,3.6958333333333337,3.629166666666667,-0.33229166666666643,-0.7312499999999993,-0.7979166666666662
match_1,1,player_1,death,1354.511,79.08924731182795,80.91989247311828,78.03763440860216,74.8978494623656,1.8306451612903345,-1.051612903225788,-4.191397849462348,28100.657757337493,28477.970745805076,28398.125230840866,29155.854905320703,377.31298846758364,297.4674735033732,1055.19714798321,12.46096447456812,12.18151903128668,10.444227855018344,8.986382122031445,-0.27944544328144083,-2.0167366195497767,-3.4745823525366752,12.582403323682255,11.619322333263561,10.180177831272122,9.820814929453798,-0.9630809904186943,-2.4022254924101336,-2.7615883942284576,1488.113147105085,1642.9569258095917,1706.040564191434,1614.2804238687695,154.84377870450658,217.9274170863489,126.16727676368441,5.100570664381534,4.976500846082071,4.8217882482377625,4.90013501003803,-0.12406981829946329,-0.2787824161437715,-0.2004356543435044,35.1349811827957,35.19175075268817,35.452452688172045,35.21015827956989,0.056769569892473726,0.3174715053763464,0.07517709677419049,98.49223475698923,98.37711812096774,98.76356963440861,99.33142314408602,-0.11511663602149724,0.27133487741937756,0.8391883870967831,0.0012533347836303,0.00086899845305795,0.0012398469975974501,0.0011234681967595,-0.00038433633057234997,-1.348778603284988e-05,-0.00012986658687079997,0.0,0.0,0.0,0.0,0.0,0.0,0.0,0.0,-0.03121159855849395,-0.0672754832787002,-0.0721277694404125,-0.03121159855849395,-0.0672754832787002,-0.0721277694404125,0.9708333333333332,1.4208333333333332,0.48124999999999996,0.3791666666666666,0.44999999999999996,-0.48958333333333326,-0.5916666666666666,1910.3345513624129,1719.108748904302,1638.9813301781764,1783.475768312169,-191.22580245811082,-271.3532211842364,-126.8587830502438,4.427083333333333,4.094791666666667,3.6958333333333337,3.629166666666667,-0.33229166666666643,-0.7312499999999993,-0.7979166666666662
match_1,1,player_1,kill,1407.261,80.66236559139784,73.46397849462366,73.53118279569892,77.82365591397848,-7.198387096774184,-7.131182795698919,-2.8387096774193594,27727.44857692493,28361.806226158606,29463.191492007074,29055.695335260043,634.357649233676,1735.7429150821445,1328.2467583351136,11.90207358800524,8.383453273781457,10.41113277906018,12.528544762047886,-3.5186203142237833,-1.4909408089450604,0.6264711740426456,10.656241342844869,10.164096323095785,10.222446627972996,10.873670047129622,-0.4921450197490831,-0.4337947148718726,0.21742870428475314,1614.2804238687695,1565.9415939151345,1744.1743678788926,1550.9723224945546,-48.33882995363501,129.89394401012305,-63.30810137421486,4.90013501003803,4.739341326111687,4.772490021779401,4.945772654098627,-0.16079368392634308,-0.1276449882586288,0.045637644060597005,35.36638,35.37434182795698,35.165450430107526,35.174452580645166,0.007961827956982859,-0.20092956989247313,-0.19192741935483326,98.49223475698923,99.2982804639785,99.38496979784945,97.41256142150537,0.8060457069892664,0.8927350408602166,-1.0796733354838608,0.0011273835332378,0.0012378893293583,-0.00076800289868035,-0.0013890318792144501,0.00011050579612049993,-0.00189538643191815,-0.0025164154124522504,0.0,0.0,0.0,0.0,0.0,0.0,0.0,-0.0624231971169879,-0.1273505553047975,-0.11494338591689646,-0.02741347319396265,-0.06492735818780959,-0.05252018879990856,0.035009723923025246,0.8333333333333334,0.60625,0.27812499999999996,0.6208333333333333,-0.22708333333333341,-0.5552083333333334,-0.21250000000000002,1700.5085335375736,1741.9921509248713,1982.3951311630954,2200.8813825627585,41.48361738729773,281.88659762552174,500.3728490251849,3.7625,4.16875,3.8197916666666663,3.732291666666667,0.40625,0.057291666666666075,-0.030208333333333393
match_10,4,player_4,kill,123.836,68.4204301075269,71.85376344086022,71.49623655913979,67.19139784946236,3.433333333333323,3.075806451612891,-1.2290322580645352,26105.626252791324,25633.285771645656,25112.298468436056,26198.882451783084,-472.3404811456676,-993.3277843552678,93.25619899175945,10.336013512669693,12.019642554513993,12.128195694178117,9.788390992565212,1.6836290418443003,1.7921821815084247,-0.5476225201044809,23.12333589059285,24.745337326342757,20.864273068916617,17.208563659860957,1.6220014357499082,-2.259062821676231,-5.9147722307318915,1757.839971801504,814.6390870190758,1441.71174070203,1633.3941309657407,-943.2008847824281,-316.12823109947385,-124.44584083576319,3.808457524215192,3.8541857818297744,3.686384603942848,3.62720030170793,0.045728257614582546,-0.12207292027234384,-0.18125722250726195,53.67000000000001,53.67000000000001,53.67000000000001,53.67000000000001,0.0,0.0,0.0,97.95573848064517,97.07932356048389,96.73261699516128,97.42702250887096,-0.876414920161281,-1.2231214854838868,-0.5287159717742043,0.0011428461913068,0.00183734922006805,0.0011378926192386,-0.0002814207683748,0.0006945030287612501,-4.953572068199918e-06,-0.0014242669596815998,-0.093452661096349,-0.0897309251765975,-0.1015174005643794,-0.09008233181078154,0.003721735919751501,-0.008064739468030394,0.003370329285567464,-0.0074823811333874,0.0338857200513089,0.00818250649023795,-0.02912439006200105,0.041368101184696304,0.015664887623625348,-0.02164200892861365,2.129166666666667,1.3270833333333334,0.4520833333333333,0.721875,-0.8020833333333335,-1.6770833333333335,-1.4072916666666668,1839.874454744005,1567.5404956420039,955.0843821310266,1334.361627888255,-272.33395910200124,-884.7900726129785,-505.51282685575006,4.114583333333333,3.167708333333333,2.826041666666667,3.8083333333333336,-0.9468749999999999,-1.2885416666666663,-0.30624999999999947
match_10,4,player_4,kill,129.456,67.94462365591397,71.85376344086022,67.70537634408602,66.6774193548387,3.909139784946248,-0.23924731182795256,-1.2672043010752674,26055.594108088415,25633.285771645656,25160.945290499985,27334.113257194043,-422.30833644275845,-894.6488175884297,1278.5191491056285,9.856049899524823,12.019642554513993,10.55311979199794,9.023662193132486,2.16359265498917,0.6970698924731167,-0.8323877063923373,21.721549448773338,24.745337326342757,19.055919943981348,19.055919943981348,3.0237878775694185,-2.6656295047919905,-2.6656295047919905,1238.633277891313,814.6390870190758,1293.216370584451,1293.216370584451,-423.99419087223714,54.58309269313804,54.58309269313804,3.862671643222907,3.8541857818297744,3.645799408715488,3.645799408715488,-0.008485861393132677,-0.21687223450741921,-0.21687223450741921,53.67000000000001,53.67000000000001,53.67000000000001,53.67000000000001,0.0,0.0,0.0,97.82658018064515,97.07932356048389,97.27871833709676,97.57532668064516,-0.7472566201612665,-0.5478618435483895,-0.25125349999999,0.0007476789804483,0.00183734922006805,-0.0001781832278007,-0.0003846583089489,0.0010896702396197499,-0.000925862208249,-0.0011323372893972,-0.0861797919400325,-0.0897309251765975,-0.086009189256846,-0.0631390517496503,-0.0035511332365650017,0.0001706026831864993,0.0230407401903822,-0.035677741644679795,0.0338857200513089,0.0006400281315272,0.0006400281315272,0.0695634616959887,0.036317769776206994,0.036317769776206994,1.6906250000000003,1.3270833333333334,0.525,1.0645833333333334,-0.3635416666666669,-1.1656250000000004,-0.6260416666666668,1860.6790190257798,1567.5404956420039,1295.2065365400028,2053.76102805446,-293.1385233837759,-565.4724824857769,193.0820090286802,4.2875,3.167708333333333,3.43125,4.185416666666667,-1.1197916666666665,-0.8562499999999997,-0.10208333333333286
match_11,1,player_1,assist,218.387,73.6247311827957,70.60268817204302,68.91236559139784,73.16344086021506,-3.0220430107526823,-4.712365591397855,-0.46129032258063773,26921.411379554138,27273.67296393962,27171.018063964926,25789.74275842364,352.26158438548373,249.60668441078815,-1131.6686211304987,7.511405915419486,7.374368830749631,8.599655462227254,9.848755902066287,-0.13703708466985454,1.0882495468077682,2.3373499866468013,8.238742960750237,7.84390765421745,7.671378208730687,8.174496108839145,-0.3948353065327872,-0.5673647520195502,-0.0642468519110917,,,,,,,,,,,,,,,35.95595900537634,35.85749220430108,35.71102110215054,35.88669569892473,-0.0984668010752614,-0.24493790322580367,-0.06926330645161016,98.1153668112903,98.23605053870966,98.39319911532256,98.24247149677416,0.12068372741936173,0.277832304032259,0.12710468548385734,0.0054019413912754,0.0037149455755035,0.0050204464135004,0.0058688743478466,-0.0016869958157718994,-0.00038149497777499944,0.0004669329565712005,0.091560225772001,0.07623988665792905,0.036055152004800896,0.037939015101629,-0.015320339114071949,-0.055505073767200104,-0.053621210670371997,0.03397024326305395,0.0280898780488519,0.0325318001755234,0.0273437991657597,-0.0058803652142020504,-0.0014384430875305498,-0.006626444097294251,0.2833333333333333,0.2458333333333333,0.29062499999999997,0.3729166666666667,-0.03750000000000003,0.007291666666666641,0.08958333333333335,1279.4584557918222,1251.8062939773133,1554.9119157753366,1698.8788424144343,-27.652161814508872,275.45345998351445,419.4203866226121,2.935416666666667,2.8864583333333336,2.911458333333333,3.208333333333333,-0.048958333333333215,-0.023958333333333748,0.27291666666666625
match_11,1,player_1,death,284.876,69.24516129032259,70.87150537634409,81.26989247311829,78.95376344086023,1.6263440860215042,12.024731182795705,9.708602150537644,27085.361689012312,25601.02424227795,25055.869676958308,27662.50632151236,-1484.3374467343638,-2029.4920120540046,577.144632500047,7.536592359471981,9.917960762246757,9.533805256069222,8.849767058712773,2.3813684027747763,1.997212896597241,1.3131746992407924,8.174496108839145,8.574828670761008,8.119954949762189,7.264748666841507,0.4003325619218625,-0.05454115907695645,-0.9097474419976379,,,,,,,,,,,,,,,35.76822930107527,35.77025430107527,35.89921989247311,35.82255304659498,0.0020249999999961688,0.13099059139783975,0.05432374551971009,98.24247149677416,98.33698207016127,98.26810743225805,98.54856260806451,0.09451057338711166,0.02563593548389065,0.3060911112903568,0.0041720184791542,0.0061273856350163,0.0052254220643962,0.0060692664152573,0.0019553671558620997,0.0010534035852419995,0.0018972479361031,0.0575866328237996,0.026231343143715603,0.05042369233885245,0.0629083695760759,-0.031355289680084,-0.0071629404849471445,0.005321736752276304,0.0323315558880172,0.02983767752688845,0.02602466592171815,0.0296876886243158,-0.00249387836112875,-0.006306889966299051,-0.0026438672637013987,0.2833333333333333,0.484375,0.459375,0.2916666666666667,0.20104166666666667,0.17604166666666665,0.00833333333333336,1410.9449891362392,1832.4137397480895,1505.8290224136363,1069.1798466580262,421.4687506118503,94.88403327739707,-341.76514247821297,2.36875,3.4749999999999996,3.8947916666666664,3.1354166666666665,1.1062499999999997,1.5260416666666665,0.7666666666666666
match_11,1,player_1,death,504.956,71.58440860215053,79.10483870967744,70.43548387096774,72.005376344086,7.520430107526906,-1.1489247311827882,0.4209677419354705,29333.083492449583,27985.195637848123,29013.14035420634,30666.967857168853,-1347.8878546014603,-319.94313824324126,1333.8843647192698,12.021698968921628,12.78613702016141,6.713530264210831,7.616456858116967,0.7644380512397824,-5.308168704710797,-4.405242110804661,8.526165970907316,8.233966715708455,7.267978070971775,7.420850658869934,-0.29219925519886125,-1.2581878999355407,-1.1053153120373818,,,,,,,,,,,,,,,36.02810502688172,35.96747975806451,35.83718854838709,35.97852397849463,-0.06062526881720487,-0.19091647849462845,-0.049581048387089766,97.66226995,98.00243339274192,98.48703966935484,98.80293602903224,0.34016344274192534,0.8247697193548476,1.1406660790322434,0.003751119406967,0.00317387873359905,0.0027696209097774,0.0022254849718826,-0.0005772406733679496,-0.0009814984971895997,-0.0015256344350844,0.04589231573201015,-0.035616969240691854,-0.0972986440832914,-0.0464281131860962,-0.081509284972702,-0.14319095981530156,-0.09232042891810635,0.0509132263643112,0.019950438858335348,0.0218202348574693,0.0078422671701905,-0.03096278750597585,-0.029092991506841897,-0.0430709591941207,0.4208333333333333,0.5479166666666666,0.13125,0.0645833333333333,0.12708333333333333,-0.2895833333333333,-0.35624999999999996,1372.9189525057895,1431.0749375425567,1253.3441381498965,1226.8927997651615,58.155985036767106,-119.57481435589307,-146.02615274062805,3.029166666666667,2.651041666666667,2.502083333333333,2.958333333333333,-0.3781249999999998,-0.5270833333333336,-0.07083333333333375
match_11,1,player_1,kill,730.575,74.18064516129033,87.38118279569892,76.46397849462366,71.1,13.20053763440859,2.2833333333333314,-3.0806451612903345,27815.10742819975,25659.22523134417,28997.936423870353,31693.71373400952,-2155.8821968555785,1182.828995670603,3878.6063058097716,18.43813608303577,16.527946897494495,11.683143082658228,16.90800993852725,-1.9101891855412738,-6.7549930003775405,-1.5301261445085181,9.033813993288817,9.293085464561663,9.231719032344522,9.083008961053803,0.25927147127284655,0.1979050390557049,0.04919496776498633,,,,,,,,,,,,,,,35.740183261648745,35.790841209677424,35.77467983870968,35.77902322580645,0.050657948028678845,0.034496577060934897,0.03883996415770241,98.50816648064514,96.45718601370967,98.51804515806451,97.9863783629032,-2.0509804669354708,0.009878677419365545,-0.5217881177419486,0.0039411279338861,0.0031027375895897004,0.00260621921313915,0.0026998678761351,-0.0008383903442964,-0.0013349087207469505,-0.0012412600577510003,-0.043352317044493,-0.0395828268580641,-0.05696759192234005,-0.0030011096854351,0.0037694901864289004,-0.013615274877847049,0.0403512073590579,0.0322506600104494,0.019782598122645448,0.0128268477981583,0.00660679220864,-0.012468061887803951,-0.0194238122122911,-0.025643867801809397,0.51875,0.4208333333333334,0.41874999999999996,0.9833333333333332,-0.09791666666666665,-0.10000000000000009,0.4645833333333331,1458.4399525899837,1604.1108368668943,1383.126323456855,1597.862468554222,145.67088427691056,-75.31362913312864,139.4225159642383,3.1375,3.06875,3.6260416666666666,2.252083333333333,-0.06875000000000009,0.48854166666666643,-0.885416666666667
match_11,1,player_1,death,817.172,71.1,72.13279569892472,75.5456989247312,77.92580645161291,1.0327956989247298,4.445698924731204,6.8258064516129195,28208.37993917917,29951.046836594345,29840.79203272012,29831.75465346324,1742.6668974151762,1632.412093540952,1623.3747142840693,12.718531155224705,19.519219398596857,23.76812117596539,15.657900867381592,6.800688243372152,11.049590020740686,2.9393697121568874,8.926094875925719,9.00455191848976,8.930368067984116,10.060099524568448,0.0784570425640414,0.004273192058397157,1.1340046486427298,,,,,,,,,,,,,,,35.77033645161291,35.790478817204296,35.85515188172043,35.82612795698924,0.020142365591382827,0.08481543010751835,0.05579150537632671,98.36368708225808,97.76713098790322,98.13434246935482,98.28230657580644,-0.5965560943548667,-0.2293446129032617,-0.0813805064516373,0.0022643472452933,0.0023931904919834,0.0026641692859763503,0.0025744277518175,0.00012884324669010022,0.00039982204068305044,0.0003100805065242001,-0.0913198974402655,-0.0465659171964612,-0.07169202568237751,-0.0733508996582549,0.0447539802438043,0.019627871757887994,0.017968997782010596,0.0073145362348415,0.0052798581926696,0.01806934867670515,0.0103095459258633,-0.0020346780421719004,0.010754812441863649,0.0029950096910218004,0.5145833333333333,1.0885416666666665,0.76875,0.68125,0.5739583333333332,0.25416666666666676,0.16666666666666674,1597.862468554222,1579.2411275537156,1561.652565628847,1633.457145139993,-18.62134100050639,-36.20990292537499,35.59467658577091,3.472916666666667,2.084375,2.497916666666667,2.74375,-1.3885416666666668,-0.9750000000000001,-0.729166666666667
match_11,1,player_1,death,876.472,72.13279569892472,75.5456989247312,77.92580645161291,71.60967741935481,3.412903225806474,5.79301075268819,-0.5231182795699141,29951.046836594345,29840.79203272012,29831.75465346324,31149.2414332007,-110.25480387422431,-119.29218313110687,1198.194596606354,19.519219398596857,23.76812117596539,15.657900867381592,11.618416709175952,4.248901777368534,-3.8613185312152645,-7.900802689420905,9.00455191848976,8.930368067984116,10.060099524568448,7.9496701279313395,-0.07418385050564424,1.0555476060786884,-1.0548817905584205,,,,,,,,,,,,,,,35.790478817204296,35.85515188172043,35.82612795698924,35.98844150537634,0.06467306451613553,0.035649139784943884,0.19796268817204776,97.76713098790322,98.13434246935482,98.28230657580644,98.37259426935482,0.367211481451605,0.5151755879032294,0.6054632814516054,0.0023931904919834,0.0026641692859763503,0.0025744277518175,0.0026989486161632,0.0002709787939929502,0.00018123725983409987,0.00030575812417979985,-0.0465659171964612,-0.07169202568237751,-0.0733508996582549,-0.0733508996582549,-0.02512610848591631,-0.026784982461793706,-0.026784982461793706,0.0052798581926696,0.01806934867670515,0.0103095459258633,0.0086155039916088,0.012789490484035548,0.005029687733193701,0.0033356457989392003,1.0885416666666665,0.76875,0.68125,0.53125,-0.3197916666666665,-0.4072916666666665,-0.5572916666666665,1579.2411275537156,1561.652565628847,1633.457145139993,823.4004925267717,-17.5885619248686,54.2160175862773,-755.8406350269439,2.084375,2.497916666666667,2.74375,2.8208333333333333,0.4135416666666667,0.6593749999999998,0.7364583333333332
match_11,1,player_1,death,943.057,77.92580645161291,79.93978494623653,69.82150537634408,72.67419354838711,2.013978494623615,-8.104301075268836,-5.251612903225805,29831.75465346324,30807.613114027532,30901.080862204748,29343.858069710877,975.8584605642936,1069.3262087415096,-487.89658375236104,15.657900867381592,13.638158788278773,10.508972118230574,11.552650228301292,-2.0197420791028193,-5.148928749151018,-4.1052506390803,10.060099524568448,9.17546117773301,7.308577212956639,9.37556221294223,-0.8846383468354375,-2.7515223116118097,-0.6845373116262188,,,,,,,,,,,,,,,35.82612795698924,35.90728473118279,36.08501792114696,36.18159433691756,0.08115677419355194,0.25888996415771715,0.3554663799283233,98.28230657580644,98.14339896451614,98.23449905806453,98.55479445645162,-0.13890761129030693,-0.04780751774191572,0.2724878806451727,0.0025744277518175,0.0024592052877961497,0.0028625366138311497,0.0025384668860736,-0.00011522246402135032,0.0002881088620136497,-3.596086574389999e-05,-0.0733508996582549,-0.07800061348573595,-0.04947401881618655,-0.0162977103191561,-0.004649713827481042,0.023876880842068356,0.05705318933909881,0.0103095459258633,0.012042785069224,0.0082123193794131,-0.0012289438906835,0.0017332391433606993,-0.0020972265464502,-0.011538489816546801,0.68125,0.60625,0.29791666666666666,0.8604166666666667,-0.07500000000000007,-0.38333333333333336,0.1791666666666667,1633.457145139993,1200.0260485220233,757.9882849728508,1592.455554081246,-433.4310966179696,-875.4688601671421,-41.00159105874695,2.74375,2.930208333333333,3.398958333333333,3.722916666666667,0.18645833333333295,0.655208333333333,0.979166666666667
match_11,1,player_1,assist,943.752,77.92580645161291,79.93978494623653,69.82150537634408,72.67419354838711,2.013978494623615,-8.104301075268836,-5.251612903225805,29831.75465346324,30807.613114027532,30901.080862204748,29343.858069710877,975.8584605642936,1069.3262087415096,-487.89658375236104,15.657900867381592,13.638158788278773,10.508972118230574,11.552650228301292,-2.0197420791028193,-5.148928749151018,-4.1052506390803,10.060099524568448,9.17546117773301,7.308577212956639,9.37556221294223,-0.8846383468354375,-2.7515223116118097,-0.6845373116262188,,,,,,,,,,,,,,,35.82612795698924,35.90728473118279,36.08501792114696,36.18159433691756,0.08115677419355194,0.25888996415771715,0.3554663799283233,98.28230657580644,98.14339896451614,98.23449905806453,98.55479445645162,-0.13890761129030693,-0.04780751774191572,0.2724878806451727,0.0025744277518175,0.0024592052877961497,0.0028625366138311497,0.0025384668860736,-0.00011522246402135032,0.0002881088620136497,-3.596086574389999e-05,-0.0733508996582549,-0.07800061348573595,-0.04947401881618655,-0.0162977103191561,-0.004649713827481042,0.023876880842068356,0.05705318933909881,0.0103095459258633,0.012042785069224,0.0082123193794131,-0.0012289438906835,0.0017332391433606993,-0.0020972265464502,-0.011538489816546801,0.68125,0.60625,0.29791666666666666,0.8604166666666667,-0.07500000000000007,-0.38333333333333336,0.1791666666666667,1633.457145139993,1200.0260485220233,757.9882849728508,1592.455554081246,-433.4310966179696,-875.4688601671421,-41.00159105874695,2.74375,2.930208333333333,3.398958333333333,3.722916666666667,0.18645833333333295,0.655208333333333,0.979166666666667
match_11,1,player_1,kill,1072.423,85.2956989247312,100.87956989247311,72.73870967741935,71.21612903225807,15.583870967741916,-12.556989247311847,-14.079569892473131,28090.344298778196,25775.653811218268,26059.385042233505,28249.82789821081,-2314.6904875599284,-2030.959256544691,159.48359943261312,12.811182539922704,14.08488254347715,11.350709717767154,9.769932383815153,1.2737000035544455,-1.46047282215555,-3.0412501561075516,10.41367137703192,9.6421086827981,7.8324368244745886,9.10772021491927,-0.7715626942338201,-2.581234552557331,-1.305951162112649,,,,,,,,,,,,,,,36.02534807347669,35.720672275985656,35.80043655913979,35.825598709677415,-0.30467579749103635,-0.22491151433690248,-0.19974936379927755,98.56389104516128,98.3145069879032,97.76650115322582,98.13631357419352,-0.24938405725808366,-0.7973898919354667,-0.427577470967762,0.0022702051392906,0.0026191776021799998,0.0019770401882577,0.0016732931349602,0.0003489724628893999,-0.00029316495103289984,-0.0005969120043303998,-0.02080620633461095,-0.0857985077529487,-0.1553069466547464,-0.1153783447631324,-0.06499230141833776,-0.13450074032013545,-0.09457213842852144,-0.0012700550100255,0.015546863435837352,0.0218701724491316,0.0066805780391537,0.01681691844586285,0.0231402274591571,0.0079506330491792,0.871875,0.5114583333333333,0.1270833333333333,0.2291666666666666,-0.3604166666666666,-0.7447916666666666,-0.6427083333333333,1596.2713169689969,1437.0587522445257,1425.0775882402313,1786.1551834934298,-159.21256472447112,-171.19372872876556,189.88386652443296,4.329166666666667,3.097916666666667,2.472916666666667,3.7875,-1.2312499999999997,-1.8562499999999997,-0.5416666666666665
match_11,1,player_1,death,1078.702,85.2956989247312,100.87956989247311,72.73870967741935,71.21612903225807,15.583870967741916,-12.556989247311847,-14.079569892473131,28090.344298778196,25775.653811218268,26059.385042233505,28249.82789821081,-2314.6904875599284,-2030.959256544691,159.48359943261312,12.811182539922704,14.08488254347715,11.350709717767154,9.769932383815153,1.2737000035544455,-1.46047282215555,-3.0412501561075516,10.41367137703192,9.6421086827981,7.8324368244745886,9.10772021491927,-0.7715626942338201,-2.581234552557331,-1.305951162112649,,,,,,,,,,,,,,,36.02534807347669,35.720672275985656,35.80043655913979,35.825598709677415,-0.30467579749103635,-0.22491151433690248,-0.19974936379927755,98.56389104516128,98.3145069879032,97.76650115322582,98.13631357419352,-0.24938405725808366,-0.7973898919354667,-0.427577470967762,0.0022702051392906,0.0026191776021799998,0.0019770401882577,0.0016732931349602,0.0003489724628893999,-0.00029316495103289984,-0.0005969120043303998,-0.02080620633461095,-0.0857985077529487,-0.1553069466547464,-0.1153783447631324,-0.06499230141833776,-0.13450074032013545,-0.09457213842852144,-0.0012700550100255,0.015546863435837352,0.0218701724491316,0.0066805780391537,0.01681691844586285,0.0231402274591571,0.0079506330491792,0.871875,0.5114583333333333,0.1270833333333333,0.2291666666666666,-0.3604166666666666,-0.7447916666666666,-0.6427083333333333,1596.2713169689969,1437.0587522445257,1425.0775882402313,1786.1551834934298,-159.21256472447112,-171.19372872876556,189.88386652443296,4.329166666666667,3.097916666666667,2.472916666666667,3.7875,-1.2312499999999997,-1.8562499999999997,-0.5416666666666665
match_11,1,player_1,assist,1091.481,97.91720430107527,88.29032258064515,70.37150537634409,71.21612903225807,-9.62688172043012,-27.545698924731184,-26.701075268817206,26836.830527845515,25386.931068412265,26500.7246588435,28249.82789821081,-1449.8994594332507,-336.1058690020145,1412.997370365294,14.069714851544118,12.72537997658867,10.560321050791153,9.769932383815153,-1.3443348749554485,-3.5093938007529655,-4.299782467728965,9.37556221294223,7.630712366792224,8.268354062014565,9.10772021491927,-1.7448498461500055,-1.107208150927665,-0.26784199802295916,,,,,,,,,,,,,,,35.82119508960572,35.71029301075269,35.8130176344086,35.825598709677415,-0.11090207885303016,-0.008177455197120764,0.004403620071691705,98.2572721935484,97.76250261612903,97.95140736370968,98.13631357419352,-0.4947695774193761,-0.3058648298387254,-0.12095861935488017,0.0025384668860736,0.0021389772726791,0.00177755320766475,0.0016732931349602,-0.00039948961339449996,-0.0007609136784088499,-0.0008651737511133999,-0.0298552159805963,-0.18254968295921692,-0.18933225652393953,-0.1153783447631324,-0.15269446697862063,-0.15947704054334325,-0.0855231287825361,-0.0012289438906835,0.0270964216057449,0.01796169207208095,0.0066805780391537,0.0283253654964284,0.01919063596276445,0.0079095219298372,0.8604166666666667,0.12916666666666665,0.1114583333333333,0.2291666666666666,-0.7312500000000001,-0.7489583333333334,-0.6312500000000001,1592.455554081246,1349.5540064362674,1605.6163858668306,1786.1551834934298,-242.90154764497856,13.160831785584605,193.69962941218387,3.722916666666667,2.4291666666666667,2.6135416666666664,3.7875,-1.2937500000000002,-1.1093750000000004,0.06458333333333321
match_11,1,player_1,kill,1207.91,71.21612903225807,81.66129032258063,86.25913978494623,69.98924731182795,10.44516129032256,15.043010752688161,-1.2268817204301143,28249.82789821081,34805.59978143821,33272.97884110674,33992.72302719628,6555.771883227404,5023.1509428959325,5742.895128985474,9.769932383815153,17.018639633161662,16.069271005351844,13.743642178915588,7.248707249346509,6.299338621536691,3.9737097951004348,9.10772021491927,13.666675300615111,12.764985965931087,11.983608980843446,4.558955085695841,3.657265751011817,2.8758887659241754,,,,,,,,,,,,,,,35.825598709677415,35.97818865591398,35.976714901433695,35.997788978494626,0.1525899462365672,0.15111619175628022,0.17219026881721078,98.13631357419352,98.11402508870968,97.64259095887098,97.76966468225808,-0.022288485483841214,-0.4937226153225396,-0.3666488919354407,0.0016732931349602,0.0017737272598974002,0.00161022940229225,0.0013724328824948,0.00010043412493720007,-6.30637326679501e-05,-0.00030086025246540016,-0.1153783447631324,-0.0903426522726197,-0.09481574944796264,-0.0970184203826407,0.025035692490512698,0.020562595315169754,0.018359924380491693,0.0066805780391537,0.0104797187926261,0.002479109406963999,-0.0028276541208044,0.0037991407534723994,-0.004201468632189701,-0.0095082321599581,0.2291666666666666,0.9843750000000001,0.6458333333333335,0.19375,0.7552083333333335,0.41666666666666685,-0.035416666666666596,1786.1551834934298,1636.6356355329108,1566.5040500574955,1789.5336869035773,-149.51954796051905,-219.6511334359343,3.3785034101474594,3.7875,4.248958333333333,2.895833333333333,3.4229166666666666,0.4614583333333333,-0.891666666666667,-0.3645833333333335
match_11,1,player_1,kill,1212.064,71.21612903225807,81.66129032258063,86.25913978494623,69.98924731182795,10.44516129032256,15.043010752688161,-1.2268817204301143,28249.82789821081,34805.59978143821,33272.97884110674,33992.72302719628,6555.771883227404,5023.1509428959325,5742.895128985474,9.769932383815153,17.018639633161662,16.069271005351844,13.743642178915588,7.248707249346509,6.299338621536691,3.9737097951004348,9.10772021491927,13.666675300615111,12.764985965931087,11.983608980843446,4.558955085695841,3.657265751011817,2.8758887659241754,,,,,,,,,,,,,,,35.825598709677415,35.97818865591398,35.976714901433695,35.997788978494626,0.1525899462365672,0.15111619175628022,0.17219026881721078,98.13631357419352,98.11402508870968,97.64259095887098,97.76966468225808,-0.022288485483841214,-0.4937226153225396,-0.3666488919354407,0.0016732931349602,0.0017737272598974002,0.00161022940229225,0.0013724328824948,0.00010043412493720007,-6.30637326679501e-05,-0.00030086025246540016,-0.1153783447631324,-0.0903426522726197,-0.09481574944796264,-0.0970184203826407,0.025035692490512698,0.020562595315169754,0.018359924380491693,0.0066805780391537,0.0104797187926261,0.002479109406963999,-0.0028276541208044,0.0037991407534723994,-0.004201468632189701,-0.0095082321599581,0.2291666666666666,0.9843750000000001,0.6458333333333335,0.19375,0.7552083333333335,0.41666666666666685,-0.035416666666666596,1786.1551834934298,1636.6356355329108,1566.5040500574955,1789.5336869035773,-149.51954796051905,-219.6511334359343,3.3785034101474594,3.7875,4.248958333333333,2.895833333333333,3.4229166666666666,0.4614583333333333,-0.891666666666667,-0.3645833333333335
match_11,1,player_1,death,1261.767,81.66129032258063,86.25913978494623,69.98924731182795,78.08709677419355,4.597849462365602,-11.672043010752674,-3.574193548387072,34805.59978143821,33272.97884110674,33992.72302719628,37718.57665410037,-1532.6209403314715,-812.87675424193,2912.976872662155,17.018639633161662,16.069271005351844,13.743642178915588,15.944679537614237,-0.9493686278098181,-3.2749974542460745,-1.0739600955474256,13.666675300615111,12.764985965931087,11.983608980843446,12.864547192033426,-0.9016893346840238,-1.6830663197716653,-0.8021281085816856,,,,,,,,,,,,,,,35.97818865591398,35.976714901433695,35.997788978494626,35.99148999999999,-0.0014737544802869706,0.019600322580643592,0.013301344086009692,98.11402508870968,97.64259095887098,97.76966468225808,98.7246157403226,-0.47143412983869837,-0.3443604064515995,0.6105906516129238,0.0017737272598974002,0.00161022940229225,0.0013724328824948,0.0016517857889334,-0.00016349785760515017,-0.00040129437740260023,-0.0001219414709640002,-0.0903426522726197,-0.09481574944796264,-0.0970184203826407,-0.0155349700828545,-0.004473097175342944,-0.006675768110021005,0.0748076821897652,0.0104797187926261,0.002479109406963999,-0.0028276541208044,0.0108910562136165,-0.0080006093856621,-0.0133073729134305,0.0004113374209904,0.9843750000000001,0.6458333333333335,0.19375,0.5083333333333333,-0.33854166666666663,-0.7906250000000001,-0.4760416666666668,1636.6356355329108,1566.5040500574955,1789.5336869035773,2522.249091456777,-70.13158547541525,152.8980513706665,885.6134559238662,4.248958333333333,2.895833333333333,3.4229166666666666,3.183333333333333,-1.3531250000000004,-0.8260416666666668,-1.0656250000000003
match_11,1,player_1,kill,1331.371,69.98924731182795,73.98387096774195,81.91935483870967,74.8774193548387,3.9946236559139976,11.930107526881713,4.888172043010741,33992.72302719628,41799.16960139552,40123.48882162305,34930.67869290861,7806.446574199239,6130.765794426763,937.9556657123248,13.743642178915588,14.844160858264912,16.13867583570377,16.3326721337933,1.1005186793493245,2.395033656788181,2.589029954877711,11.983608980843446,12.638273633002193,13.357816383175352,13.85108557431728,0.6546646521587469,1.3742074023319066,1.8674765934738335,,,,,,,,,,,,,,,35.997788978494626,35.927527688172034,35.946592499999994,36.142036666666655,-0.07026129032259121,-0.05119647849463149,0.1442476881720296,97.76966468225808,98.87146328225806,98.48653996048388,98.24846418064516,1.1017985999999809,0.7168752782257997,0.47879949838707603,0.0013724328824948,0.0015121093357141,0.00203114721482085,0.0031484478112421,0.00013967645321930002,0.0006587143323260501,0.0017760149287473,-0.0970184203826407,-0.042837152441676,-0.0129220034901706,0.0368686060579386,0.05418126794096471,0.0840964168924701,0.13388702644057932,-0.0028276541208044,0.0084757140872562,0.01629443744839175,0.019493949447169,0.0113033682080606,0.01912209156919615,0.0223216035679734,0.19375,0.7354166666666666,0.6177083333333333,0.2729166666666666,0.5416666666666666,0.4239583333333333,0.07916666666666658,1789.5336869035773,2328.0665367060546,2288.8282781208964,2129.5889590490456,538.5328498024774,499.29459121731907,340.0552721454683,3.4229166666666666,3.3031249999999996,2.614583333333333,3.0125,-0.11979166666666696,-0.8083333333333336,-0.41041666666666643
match_11,1,player_1,kill,1361.62,69.98924731182795,81.91935483870967,80.31451612903224,71.76021505376343,11.930107526881713,10.32526881720429,1.770967741935479,37718.57665410037,40123.48882162305,35192.37334270854,35193.51548996996,2404.912167522678,-2526.2033113918296,-2525.061164130406,13.743642178915588,16.13867583570377,19.57410921308345,14.78151470677238,2.395033656788181,5.830467034167862,1.037872527856793,12.41200007397096,13.357816383175352,12.80818188619231,11.76527819806734,0.9458163092043925,0.39618181222135007,-0.6467218759036193,,,,,,,,,,,,,,,35.99148999999999,35.946592499999994,36.12437876344086,36.142036666666655,-0.04489749999999759,0.1328887634408673,0.1505466666666635,98.7246157403226,98.48653996048388,98.37262717661291,98.1447955096774,-0.23807577983872363,-0.3519885637096962,-0.5798202306452112,0.0016517857889334,0.00203114721482085,0.00316816169465465,0.0034334806757669,0.00037936142588745,0.0015163759057212499,0.0017816948868335,-0.0701393348004975,-0.0129220034901706,0.005784905797414398,-0.0178856693049969,0.0572173313103269,0.07592424059791189,0.052253665495500604,0.0060603719608959,0.01629443744839175,0.022621338463843697,0.019493949447169,0.01023406548749585,0.016560966502947798,0.0134335774862731,0.5083333333333333,0.6177083333333333,0.2010416666666666,0.4520833333333333,0.109375,-0.30729166666666674,-0.05625000000000002,2055.4074647850152,2288.8282781208964,2325.9190252529115,1819.965069855874,233.42081333588112,270.5115604678963,-235.4423949291413,3.4229166666666666,2.614583333333333,2.529166666666667,3.0125,-0.8083333333333336,-0.8937499999999998,-0.41041666666666643
match_11,1,player_1,death,1397.225,78.08709677419355,80.31451612903224,73.31881720430107,71.76021505376343,2.2274193548386876,-4.768279569892485,-6.326881720430123,37718.57665410037,35192.37334270854,35474.10514188514,35193.51548996996,-2526.2033113918296,-2244.4715122152265,-2525.061164130406,15.944679537614237,19.57410921308345,18.79853049957299,14.78151470677238,3.629429675469213,2.853850961958754,-1.1631648308418558,12.864547192033426,12.80818188619231,12.886636431035527,12.528674812598885,-0.05636530584111554,0.022089239002101024,-0.33587237943454085,,,,,,,,,,,,,,,35.99148999999999,36.12437876344086,36.18058728494623,35.92328448028673,0.1328887634408673,0.1890972849462358,-0.06820551971325983,98.7246157403226,98.37262717661291,98.15600861129033,98.1447955096774,-0.3519885637096962,-0.568607129032273,-0.5798202306452112,0.0016517857889334,0.00316816169465465,0.00353713127992155,0.0031484478112421,0.0015163759057212499,0.0018853454909881502,0.0014966620223087,-0.0155349700828545,0.005784905797414398,0.002071544916305547,0.0068744586271306,0.021319875880268898,0.017606514999160047,0.0224094287099851,0.0108910562136165,0.022621338463843697,0.0191040617194844,0.019493949447169,0.011730282250227198,0.008213005505867902,0.0086028932335525,0.5083333333333333,0.2010416666666666,0.32291666666666663,0.5166666666666667,-0.30729166666666674,-0.18541666666666667,0.008333333333333415,2522.249091456777,2325.9190252529115,1974.7770144524598,1676.6346030885911,-196.3300662038655,-547.4720770043173,-845.6144883681859,3.183333333333333,2.529166666666667,3.033333333333333,3.0541666666666667,-0.6541666666666663,-0.1499999999999999,-0.12916666666666643
match_11,1,player_1,assist,1502.514,71.4016129032258,77.6532258064516,75.23548387096774,73.47526881720428,6.251612903225805,3.8338709677419445,2.0736559139784845,35062.09709143928,35478.37133536619,37036.31372805568,37222.25785959376,416.2742439269059,1974.2166366163947,2160.1607681544774,14.243195562414684,15.151967095650221,14.86323047526824,14.87437857666418,0.9087715332355373,0.6200349128535567,0.6311830142494959,12.864576356526591,12.124916430824179,10.749459406752877,12.467995831207867,-0.7396599257024121,-2.1151169497737143,-0.3965805253187238,,,,,,,,,,,,,,,36.03266057347669,35.87368752688172,36.01478747311828,36.031354659498206,-0.1589730465949728,-0.017873100358407612,-0.001305913978484341,97.98001127983869,98.40399461935485,98.4988779064516,98.0831178967742,0.4239833395161554,0.5188666266129047,0.10310661693550571,0.0032909642435045,0.00297392268563875,0.0035733817370172,0.0040147485348989,-0.0003170415578657498,0.0002824174935127,0.0007237842913943998,0.009491468376470849,-0.005505605338933149,0.0068744586271306,-0.0118124467235473,-0.014997073715403998,-0.0026170097493402487,-0.021303915100018146,0.023505533000972148,0.01418252450119765,0.0249764386672861,0.0299108513115561,-0.009323008499774499,0.0014709056663139534,0.006405318310583951,0.484375,0.5093749999999999,0.45,0.45,0.02499999999999991,-0.03437499999999999,-0.03437499999999999,1734.0198202162871,1662.3545868326457,1676.6346030885911,1494.1618443561488,-71.66523338364141,-57.38521712769602,-239.85797586013837,3.009375,3.1781249999999996,3.3916666666666666,2.895833333333333,0.16874999999999973,0.3822916666666667,-0.11354166666666687
match_11,1,player_1,assist,1511.332,71.76021505376343,79.7494623655914,71.3521505376344,73.47526881720428,7.989247311827967,-0.4080645161290306,1.7150537634408494,35193.51548996996,36399.77045440905,37129.28579382472,37222.25785959376,1206.2549644390892,1935.7703038547552,2028.7423696237965,14.78151470677238,14.905911193776063,14.037997544788455,14.87437857666418,0.12439648700368267,-0.7435171619839256,0.09286386989179896,12.528674812598885,11.563615172309113,10.674007469386108,12.467995831207867,-0.9650596402897715,-1.8546673432127765,-0.06067898139101757,,,,,,,,,,,,,,,35.92328448028673,35.91943902329749,36.10852478494624,36.031354659498206,-0.0038454569892394375,0.18524030465950858,0.10807017921147377,98.1447955096774,98.58103581774193,98.21960981451612,98.0831178967742,0.4362403080645407,0.07481430483872487,-0.06167761290319618,0.0031484478112421,0.0030438732162639,0.0037940651359580496,0.0040147485348989,-0.00010457459497820003,0.0006456173247159497,0.0008663007236567998,0.0068744586271306,-0.07957902773047905,-0.05583064489299715,-0.0118124467235473,-0.08645348635760965,-0.06270510352012774,-0.0186869053506779,0.019493949447169,0.01291218555745305,0.03215988132051035,0.0299108513115561,-0.006581763889715949,0.012665931873341349,0.0104169018643871,0.5166666666666667,0.38749999999999996,0.32916666666666666,0.45,-0.12916666666666676,-0.18750000000000006,-0.06666666666666671,1676.6346030885911,1784.5803228243576,1615.2205697601914,1494.1618443561488,107.94571973576649,-61.41403332839968,-182.47275873244234,3.0541666666666667,2.892708333333333,2.9916666666666663,2.895833333333333,-0.16145833333333348,-0.06250000000000044,-0.15833333333333366
match_11,1,player_1,assist,1735.609,74.62204301075269,80.0209677419355,73.68279569892472,72.18817204301075,5.398924731182802,-0.9392473118279696,-2.433870967741939,32227.824541223974,30786.7561842945,34697.40649030076,30917.72548881525,-1441.0683569294742,2469.5819490767863,-1310.0990524087247,12.020282312967456,12.402512436968571,9.57393678989076,9.346341557079166,0.382230124001115,-2.4463455230766957,-2.6739407558882906,11.077823885050819,12.27279606637789,12.17728004445943,12.17728004445943,1.1949721813270706,1.0994561594086107,1.0994561594086107,,,,,,,,,,,,,,,36.106164381720426,35.98629951612903,35.93556505376344,36.16728602150537,-0.11986486559139564,-0.1705993279569853,0.06112163978494323,97.81583140967743,97.89255332741935,97.88321039032256,98.01588252096776,0.07672191774192072,0.06737898064513104,0.20005111129033537,0.0035569297714920503,0.00375054755028045,0.0016306482521759,0.002720981026283,0.00019361777878839975,-0.0019262815193161504,-0.0008359487452090503,-0.01479308530845425,0.0024100643093370503,-0.077477019209434,-0.0413359008241642,0.017203149617791298,-0.06268393390097976,-0.026542815515709948,0.01713112588394655,0.04117364983129,0.0110919518081617,0.0262314101308128,0.024042523947343453,-0.0060391740757848485,0.009100284246866253,0.584375,0.871875,0.58125,0.1625,0.2875,-0.0031249999999999334,-0.421875,1886.2556418003405,2050.9555534526708,1777.8732517510252,1445.5794671825631,164.69991165233023,-108.38239004931529,-440.6761746177774,2.896875,3.01875,2.4625,3.3854166666666665,0.12187499999999973,-0.4343750000000002,0.48854166666666643
match_11,1,player_1,death,1754.465,75.50537634408602,79.10967741935484,71.7048387096774,72.18817204301075,3.604301075268822,-3.800537634408613,-3.3172043010752645,30822.18500147044,32724.36692870966,34985.28336590799,30917.72548881525,1902.1819272392204,4163.098364437552,95.54048734480966,12.16240209895009,11.108279782438908,9.460139173484963,9.346341557079166,-1.0541223165111813,-2.702262925465126,-2.8160605418709235,12.09801321918749,11.76140746088425,11.626258026329818,12.17728004445943,-0.33660575830323936,-0.4717551928576711,0.07926682527194018,,,,,,,,,,,,,,,36.03703397849462,35.8396193548387,35.88187413978495,36.16728602150537,-0.19741462365591644,-0.15515983870967176,0.13025204301074922,97.88321039032256,98.01363566451613,97.94502923709679,98.01588252096776,0.13042527419356986,0.061818846774229996,0.13267213064520433,0.003222649484852,0.00242664886851395,0.00126936844714065,0.002720981026283,-0.0007960006163380499,-0.00195328103771135,-0.0005016684585689999,-0.0068404440133811,-0.059683447594129954,-0.10425224351487455,-0.0413359008241642,-0.05284300358074885,-0.09741179950149345,-0.034495456810783094,0.0347653936450272,0.02933692891285725,0.01016896283657015,0.0262314101308128,-0.005428464732169947,-0.024596430808457047,-0.008533983514214395,0.8354166666666667,0.7083333333333334,0.3875,0.1625,-0.12708333333333333,-0.4479166666666667,-0.6729166666666667,2014.4264055390151,1896.14982864502,1453.7525677902647,1445.5794671825631,-118.27657689399507,-560.6738377487504,-568.846938356452,2.4625,2.2416666666666663,2.703125,3.3854166666666665,-0.22083333333333366,0.2406250000000001,0.9229166666666666
match_11,1,player_1,assist,1759.843,75.50537634408602,79.10967741935484,71.7048387096774,72.18817204301075,3.604301075268822,-3.800537634408613,-3.3172043010752645,30822.18500147044,32724.36692870966,34985.28336590799,30917.72548881525,1902.1819272392204,4163.098364437552,95.54048734480966,12.16240209895009,11.108279782438908,9.460139173484963,9.346341557079166,-1.0541223165111813,-2.702262925465126,-2.8160605418709235,12.09801321918749,11.76140746088425,11.626258026329818,12.17728004445943,-0.33660575830323936,-0.4717551928576711,0.07926682527194018,,,,,,,,,,,,,,,36.03703397849462,35.8396193548387,35.88187413978495,36.16728602150537,-0.19741462365591644,-0.15515983870967176,0.13025204301074922,97.88321039032256,98.01363566451613,97.94502923709679,98.01588252096776,0.13042527419356986,0.061818846774229996,0.13267213064520433,0.003222649484852,0.00242664886851395,0.00126936844714065,0.002720981026283,-0.0007960006163380499,-0.00195328103771135,-0.0005016684585689999,-0.0068404440133811,-0.059683447594129954,-0.10425224351487455,-0.0413359008241642,-0.05284300358074885,-0.09741179950149345,-0.034495456810783094,0.0347653936450272,0.02933692891285725,0.01016896283657015,0.0262314101308128,-0.005428464732169947,-0.024596430808457047,-0.008533983514214395,0.8354166666666667,0.7083333333333334,0.3875,0.1625,-0.12708333333333333,-0.4479166666666667,-0.6729166666666667,2014.4264055390151,1896.14982864502,1453.7525677902647,1445.5794671825631,-118.27657689399507,-560.6738377487504,-568.846938356452,2.4625,2.2416666666666663,2.703125,3.3854166666666665,-0.22083333333333366,0.2406250000000001,0.9229166666666666
match_11,1,player_1,assist,1915.674,73.67473118279571,81.47150537634408,86.83870967741935,73.46236559139784,7.796774193548373,13.163978494623635,-0.21236559139786948,33194.81529700427,37579.934679586404,38959.03234810194,38678.66465818525,4385.119382582132,5764.217051097665,5483.849361180975,10.109968944203798,14.171376892623943,12.452230678448222,11.551256576635035,4.061407948420145,2.342261734244424,1.4412876324312371,10.529218188162918,14.890213955006441,14.48087990141688,12.092389682395584,4.360995766843523,3.951661713253962,1.563171494232666,,,,,,,,,,,,,,,36.06165411290323,36.012895080645166,36.16319075268817,35.97832107526881,-0.04875903225806155,0.1015366397849462,-0.0833330376344179,98.058532975,98.09958586129032,98.0979882935484,98.50069533387096,0.04105288629031634,0.03945531854839146,0.44216235887095934,0.00316335348677295,0.0036884105591922,0.0030738806801934,0.0027794088781698,0.0005250570724192501,-8.947280657954984e-05,-0.00038394460860314986,-0.029306569759819698,0.03714349156547415,-0.0098723080883948,-0.0037041822887385,0.06645006132529385,0.019434261671424896,0.0256023874710812,0.0238661378735877,0.02113695781478995,0.0198260500062132,0.0198260500062132,-0.0027291800587977526,-0.0040400878673745,-0.0040400878673745,0.5802083333333334,0.8843750000000001,0.55,0.2270833333333333,0.3041666666666667,-0.030208333333333393,-0.35312500000000013,1613.947736707586,2120.2867640225127,2026.1890064131876,2173.1082018431,506.3390273149266,412.24126970560155,559.1604651355137,3.45,3.388541666666667,3.395833333333333,3.4791666666666665,-0.06145833333333339,-0.05416666666666714,0.02916666666666634
match_11,1,player_1,assist,1920.102,73.67473118279571,81.47150537634408,86.83870967741935,73.46236559139784,7.796774193548373,13.163978494623635,-0.21236559139786948,33194.81529700427,37579.934679586404,38959.03234810194,38678.66465818525,4385.119382582132,5764.217051097665,5483.849361180975,10.109968944203798,14.171376892623943,12.452230678448222,11.551256576635035,4.061407948420145,2.342261734244424,1.4412876324312371,10.529218188162918,14.890213955006441,14.48087990141688,12.092389682395584,4.360995766843523,3.951661713253962,1.563171494232666,,,,,,,,,,,,,,,36.06165411290323,36.012895080645166,36.16319075268817,35.97832107526881,-0.04875903225806155,0.1015366397849462,-0.0833330376344179,98.058532975,98.09958586129032,98.0979882935484,98.50069533387096,0.04105288629031634,0.03945531854839146,0.44216235887095934,0.00316335348677295,0.0036884105591922,0.0030738806801934,0.0027794088781698,0.0005250570724192501,-8.947280657954984e-05,-0.00038394460860314986,-0.029306569759819698,0.03714349156547415,-0.0098723080883948,-0.0037041822887385,0.06645006132529385,0.019434261671424896,0.0256023874710812,0.0238661378735877,0.02113695781478995,0.0198260500062132,0.0198260500062132,-0.0027291800587977526,-0.0040400878673745,-0.0040400878673745,0.5802083333333334,0.8843750000000001,0.55,0.2270833333333333,0.3041666666666667,-0.030208333333333393,-0.35312500000000013,1613.947736707586,2120.2867640225127,2026.1890064131876,2173.1082018431,506.3390273149266,412.24126970560155,559.1604651355137,3.45,3.388541666666667,3.395833333333333,3.4791666666666665,-0.06145833333333339,-0.05416666666666714,0.02916666666666634
match_11,1,player_1,assist,1945.833,81.47150537634408,87.31021505376344,84.46774193548387,73.46236559139784,5.838709677419359,2.9962365591397884,-8.009139784946242,37579.934679586404,36307.45844695844,38678.66465818525,37920.48633248911,-1272.476232627967,1098.7299785988434,340.55165290270816,14.171376892623943,14.20355981056709,12.20983013184036,12.20983013184036,0.032182917943146094,-1.961546760783584,-1.961546760783584,14.890213955006441,16.333202871850588,13.417159843172827,13.417159843172827,1.442988916844147,-1.4730541118336138,-1.4730541118336138,,,,,,,,,,,,,,,36.012895080645166,36.168554758064516,36.16319075268817,35.97832107526881,0.15565967741935083,0.15029567204300776,-0.034574005376356354,98.09958586129032,98.10360667741935,98.10922506129032,98.50069533387096,0.004020816129028049,0.009639199999995185,0.401109472580643,0.0036884105591922,0.00342248792565745,0.0027794088781698,0.0032287695537566,-0.00026592263353474987,-0.0009090016810223999,-0.0004596410054356001,0.03714349156547415,0.004361479657063051,-0.0098723080883948,-0.0037041822887385,-0.032782011908411096,-0.04701579965386895,-0.040847673854212646,0.02113695781478995,0.0184071785370212,0.0160413070608251,0.0164616841200585,-0.002729779277768747,-0.005095650753964849,-0.00467527369473145,0.8843750000000001,0.6604166666666667,0.2958333333333333,0.2270833333333333,-0.22395833333333348,-0.5885416666666669,-0.6572916666666668,2120.2867640225127,2242.223264112802,2026.1890064131876,2391.4928277696445,121.93650009028943,-94.09775760932507,271.2060637471318,3.388541666666667,3.45,3.395833333333333,3.4791666666666665,0.06145833333333339,0.007291666666666252,0.09062499999999973
match_11,1,player_1,death,1990.558,86.83870967741935,78.96505376344086,71.04946236559138,74.05913978494623,-7.873655913978482,-15.789247311827964,-12.77956989247312,38959.03234810194,38818.84850314359,38299.57549533718,33944.22127212801,-140.1838449583447,-659.4568527647571,-5014.811075973928,12.452230678448222,11.689833470904478,11.880543354237698,11.551256576635035,-0.762397207543744,-0.571687324210524,-0.9009741018131869,14.48087990141688,12.754774762784205,12.691428559093167,11.965697275013506,-1.7261051386326756,-1.789451342323714,-2.5151826264033748,,,,,,,,,,,,,,,36.16319075268817,36.07075591397849,35.8950976344086,36.10821704301075,-0.09243483870968561,-0.26809311827957316,-0.05497370967742654,98.0979882935484,97.83608310806451,98.64162972903225,98.33017257903224,-0.261905185483883,0.543641435483849,0.2321842854838394,0.0030738806801934,0.0027373707962282,0.0033319505229417,0.0033358917613922,-0.0003365098839652001,0.00025806984274830006,0.0002620110811987998,-0.0098723080883948,-0.00678824518856665,0.0133588927099674,0.0304219677086733,0.0030840628998281498,0.0232312007983622,0.040294275797068096,0.0198260500062132,0.0147804887439539,0.0218687970060765,0.0164616841200585,-0.005045561262259302,0.002042746999863298,-0.003364365886154703,0.55,0.14791666666666664,0.11354166666666665,0.3229166666666667,-0.4020833333333334,-0.4364583333333334,-0.22708333333333336,2026.1890064131876,2099.030032473055,2282.300514806372,2173.1082018431,72.84102605986754,256.1115083931845,146.91919542991218,3.395833333333333,2.6041666666666665,3.736458333333333,3.0729166666666665,-0.7916666666666665,0.3406250000000002,-0.3229166666666665
match_11,1,player_1,death,2113.045,74.05913978494623,81.56935483870967,74.73172043010753,75.40913978494623,7.510215053763446,0.6725806451613039,1.3500000000000085,33944.22127212801,33201.9879083493,32550.28176379193,32638.08523194924,-742.2333637787087,-1393.9395083360796,-1306.1360401787679,11.551256576635035,10.722134181680698,11.175642175303945,11.003789532673807,-0.8291223949543376,-0.3756144013310898,-0.5474670439612286,11.965697275013506,8.984902946969918,9.970398239497515,10.691649365894154,-2.9807943280435882,-1.9952990355159912,-1.2740479091193517,,,,,,,,,,,,,,,36.10821704301075,36.06164362903226,35.989948172043015,35.99880645161291,-0.04657341397848569,-0.1182688709677322,-0.1094105913978396,98.33017257903224,98.24078892258063,98.06295290241937,98.06232011451613,-0.08938365645160218,-0.26721967661286783,-0.26785246451611044,0.0033358917613922,0.0041814941002503506,0.0022305972025084,-0.00040219004743405004,0.0008456023388581507,-0.0011052945588837996,-0.0037380818088262498,0.0304219677086733,0.0419167468043013,0.043920558264798695,0.0564770279530666,0.011494779095627999,0.013498590556125397,0.0260550602443933,0.0164616841200585,0.042876511004708455,0.048140971670258756,0.02536962366544025,0.026414826884649956,0.03167928755020026,0.00890793954538175,0.3229166666666667,0.19374999999999998,0.2739583333333333,0.41666666666666663,-0.1291666666666667,-0.04895833333333338,0.09374999999999994,2173.1082018431,1759.424593842516,1868.7233470604126,1438.417098672222,-413.6836080005837,-304.38485478268717,-734.6911031708778,3.0729166666666665,1.36875,1.9645833333333331,2.3229166666666665,-1.7041666666666666,-1.1083333333333334,-0.75
match_11,1,player_1,assist,2119.751,74.05913978494623,81.56935483870967,74.73172043010753,75.40913978494623,7.510215053763446,0.6725806451613039,1.3500000000000085,33944.22127212801,33201.9879083493,32550.28176379193,32638.08523194924,-742.2333637787087,-1393.9395083360796,-1306.1360401787679,11.551256576635035,10.722134181680698,11.175642175303945,11.003789532673807,-0.8291223949543376,-0.3756144013310898,-0.5474670439612286,11.965697275013506,8.984902946969918,9.970398239497515,10.691649365894154,-2.9807943280435882,-1.9952990355159912,-1.2740479091193517,,,,,,,,,,,,,,,36.10821704301075,36.06164362903226,35.989948172043015,35.99880645161291,-0.04657341397848569,-0.1182688709677322,-0.1094105913978396,98.33017257903224,98.24078892258063,98.06295290241937,98.06232011451613,-0.08938365645160218,-0.26721967661286783,-0.26785246451611044,0.0033358917613922,0.0041814941002503506,0.0022305972025084,-0.00040219004743405004,0.0008456023388581507,-0.0011052945588837996,-0.0037380818088262498,0.0304219677086733,0.0419167468043013,0.043920558264798695,0.0564770279530666,0.011494779095627999,0.013498590556125397,0.0260550602443933,0.0164616841200585,0.042876511004708455,0.048140971670258756,0.02536962366544025,0.026414826884649956,0.03167928755020026,0.00890793954538175,0.3229166666666667,0.19374999999999998,0.2739583333333333,0.41666666666666663,-0.1291666666666667,-0.04895833333333338,0.09374999999999994,2173.1082018431,1759.424593842516,1868.7233470604126,1438.417098672222,-413.6836080005837,-304.38485478268717,-734.6911031708778,3.0729166666666665,1.36875,1.9645833333333331,2.3229166666666665,-1.7041666666666666,-1.1083333333333334,-0.75
match_11,1,player_1,assist,2183.762,74.73172043010753,75.40913978494623,77.14516129032259,,0.6774193548387046,2.4134408602150614,,32550.28176379193,32638.08523194924,33570.371421849966,,87.80346815731173,1020.0896580580375,,11.175642175303945,11.003789532673807,10.545993079168568,,-0.17185264263013877,-0.6296490961353776,,9.970398239497515,10.691649365894154,10.886202200007254,,0.7212511263966395,0.9158039605097397,,,,,,,,,,,,,,,,35.989948172043015,35.99880645161291,36.03278677419355,,0.008858279569892602,0.04283860215053892,,98.06295290241937,98.06232011451613,98.15013969032256,,-0.0006327879032426154,0.08718678790319245,,0.0022305972025084,-0.00040219004743405004,-0.0002384780607764,,-0.00263278724994245,-0.0024690752632848,,0.043920558264798695,0.0564770279530666,0.0519384277895048,,0.012556469688267902,0.008017869524706102,,0.048140971670258756,0.02536962366544025,0.0327713115377504,,-0.022771348004818507,-0.015369660132508359,,0.2739583333333333,0.41666666666666663,0.35,,0.14270833333333333,0.07604166666666667,,1868.7233470604126,1438.417098672222,913.1041306782377,,-430.3062483881906,-955.619216382175,,1.9645833333333331,2.3229166666666665,2.375,,0.3583333333333334,0.4104166666666669,
match_11,2,player_2,death,443.581,79.00483870967741,77.39677419354837,77.71827956989247,83.1548387096774,-1.6080645161290477,-1.2865591397849414,4.1499999999999915,31022.35606038703,29646.34171858846,28865.967772477718,29278.434512845743,-1376.0143417985673,-2156.3882879093107,-1743.9215475412857,9.957362096990344,15.728969730092222,13.36696561983344,8.481244957726075,5.771607633101878,3.4096035228430956,-1.4761171392642698,6.810456440469226,5.995564839738033,6.098269259589086,6.499128888639118,-0.814891600731193,-0.7121871808801394,-0.3113275518301082,1198.540909696764,1484.1726950047678,1425.1458986309642,1425.1458986309642,285.6317853080038,226.60498893420026,226.60498893420026,5.480398800308405,5.440950672539182,5.365572958756734,5.51609094054281,-0.039448127769223795,-0.11482584155167164,0.03569214023440459,31.53569835125447,31.73666690860215,31.81629491039427,31.79966102150537,0.2009685573476787,0.28059655913979853,0.2639626702508977,96.67978587741935,96.86879236209677,96.79083626451612,96.71902014838707,0.18900648467742087,0.11105038709676762,0.03923427096772514,0.00024916832848824997,0.00063066128559595,0.0010767741049712,0.0007209503242784,0.00038149295710770005,0.0008276057764829501,0.00047178199579015,0.0275986116305239,0.043831346708191554,0.0202329140274833,0.0015312353530841,0.016232735077667655,-0.0073656976030405975,-0.0260673762774398,0.02228691231960375,0.002279120030996201,-0.0808556624184262,-0.0125006383200803,-0.020007792288607548,-0.10314257473802996,-0.03478755063968405,1.1947916666666667,0.7989583333333333,0.8333333333333334,0.8333333333333334,-0.39583333333333337,-0.3614583333333333,-0.3614583333333333,1346.5128458332772,1435.092986512943,1763.550900272132,2189.86240701393,88.58014067966587,417.0380544388547,843.3495611806527,2.584375,1.7208333333333334,2.34375,2.81875,-0.8635416666666667,-0.2406250000000001,0.234375
match_11,2,player_2,death,803.463,90.34838709677419,85.51397849462364,77.294623655914,91.46559139784944,-4.834408602150546,-13.053763440860195,1.1172043010752475,29281.937364325266,28854.158995500446,29500.900694373548,29545.17273595869,-427.77836882482006,218.96333004828193,263.23537163342553,12.90730792646902,14.822523602261015,10.00903229168768,10.207816852698835,1.9152156757919947,-2.8982756347813403,-2.6994910737701847,8.807482590405485,7.293465731750548,7.231646291028667,7.819099326672104,-1.5140168586549372,-1.5758362993768174,-0.9883832637333807,1145.5283001119649,1489.5679161404971,1514.8716571481702,1494.7906054410198,344.03961602853224,369.34335703620536,349.2623053290549,5.656852037745228,5.467739969882416,5.353195364937702,5.703112324100956,-0.18911206786281198,-0.3036566728075263,0.046260286355727764,31.917248655913966,31.759658835125443,31.784609050179203,31.57425053763441,-0.15758982078852313,-0.13263960573476297,-0.3429981182795565,96.44222212903225,96.34834697096774,96.60221267903223,96.60221267903223,-0.09387515806450608,0.15999054999998918,0.15999054999998918,0.0009006971544411001,0.00126207094378795,0.0012499338545045,0.0007677145284745,0.00036137378934684994,0.0003492367000634,-0.00013298262596660008,0.01839402926112985,-0.01451898931282875,-0.0233627141452924,0.0028140449122148,-0.0329130185739586,-0.04175674340642225,-0.01557998434891505,0.0044884623933367,0.0153296096028807,0.0247328903209373,-0.0399629327549261,0.010841147209543999,0.020244427927600603,-0.0444513951482628,1.5239583333333333,0.84375,1.0895833333333331,1.64375,-0.6802083333333333,-0.4343750000000002,0.11979166666666674,2205.9664866121147,1080.4585468609807,1664.160076517902,1867.9199277135535,-1125.507939751134,-541.8064100942127,-338.0465588985612,2.8166666666666664,1.53125,2.4520833333333334,3.2354166666666666,-1.2854166666666664,-0.36458333333333304,0.4187500000000002
match_11,2,player_2,kill,943.752,91.46559139784944,95.82634408602149,84.02580645161291,77.09032258064515,4.360752688172056,-7.439784946236529,-14.375268817204287,29545.17273595869,29580.076780290576,29902.825335429927,30022.795297211196,34.904044331884506,357.6525994712356,477.62256125250497,10.207816852698835,23.774204796536623,9.799899226571139,10.015346236943405,13.566387943837787,-0.40791762612769666,-0.19247061575543079,7.819099326672104,6.985901631588099,6.315266979938498,7.191427104017586,-0.8331976950840048,-1.5038323467336063,-0.6276722226545184,1494.7906054410198,1517.5746936064006,1678.8117157248485,1585.8280635973138,22.78408816538081,184.02111028382865,91.03745815629395,5.703112324100956,5.731464087093094,5.439623725520877,5.406408484174178,0.028351762992138596,-0.26348859858007856,-0.29670383992677785,31.57425053763441,31.33262222222222,31.46934502688172,31.50185080645161,-0.2416283154121892,-0.10490551075269039,-0.07239973118279863,96.60221267903223,97.07295065,96.6124776467742,96.47231355483872,0.47073797096776104,0.010264967741960618,-0.12989912419351413,0.0007677145284745,0.0008348169846760501,0.00112523315406375,0.0015690559319434,6.710245620155004e-05,0.00035751862558925003,0.0008013414034689,0.0028140449122148,0.01996977350172195,0.0265091001163217,-0.0690151319011837,0.017155728589507147,0.023695055204106898,-0.07182917681339851,-0.0399629327549261,-0.0170567720349798,0.0472464295967204,0.0349507002106772,0.0229061607199463,0.0872093623516465,0.0749136329656033,1.64375,1.35625,0.3125,0.6729166666666667,-0.2875000000000001,-1.33125,-0.9708333333333333,1867.9199277135535,1860.2113196837558,2093.619564146478,1844.4242546120352,-7.708608029797688,225.6996364329243,-23.495673101518378,3.2354166666666666,2.497916666666667,1.9,2.2375,-0.7374999999999998,-1.3354166666666667,-0.9979166666666668
match_11,2,player_2,death,956.04,95.92365591397848,95.82634408602149,77.09032258064515,78.25053763440859,-0.09731182795698601,-18.83333333333333,-17.67311827956989,29515.37668278871,29580.076780290576,29572.95330996612,30022.795297211196,64.70009750186728,57.576627177411865,507.41861442248774,24.085887114786605,23.774204796536623,9.584452216198873,9.880985355670642,-0.31168231824998216,-14.501434898587732,-14.204901759115963,8.342997601227342,6.985901631588099,6.560809191900852,6.560809191900852,-1.3570959696392428,-1.7821884093264897,-1.7821884093264897,1379.072312400719,1517.5746936064006,1715.774596836569,1453.497009334719,138.50238120568156,336.70228443584983,74.42469693399994,5.819439947379508,5.731464087093094,5.406408484174178,5.38393083979834,-0.0879758602864138,-0.41303146320533024,-0.43550910758116856,31.406352688172042,31.33262222222222,31.50185080645161,31.347393207885304,-0.07373046594982213,0.09549811827956844,-0.05895948028673814,96.98315404758064,97.07295065,96.7421195967742,96.47231355483872,0.08979660241935505,-0.24103445080643837,-0.5108404927419201,0.0008557361461330501,0.0008348169846760501,0.0015690559319434,0.0010963575754114,-2.0919161457e-05,0.00071331978581035,0.00024062142927834995,0.0229670877918078,0.01996977350172195,0.0158926981414143,-0.0690151319011837,-0.002997314290085852,-0.0070743896503935,-0.0919822196929915,-0.081300401971734,-0.0170567720349798,0.0349507002106772,-0.0547799950132328,0.0642436299367542,0.11625110218241119,0.02652040695850119,1.8947916666666667,1.35625,0.5541666666666667,0.7541666666666667,-0.5385416666666667,-1.340625,-1.140625,2150.030957798573,1860.2113196837558,1852.5027116539584,1688.5632470780772,-289.8196381148173,-297.52824614461474,-461.4677107204959,3.5437499999999997,2.497916666666667,2.0395833333333333,2.66875,-1.045833333333333,-1.5041666666666664,-0.8749999999999996
match_11,2,player_2,assist,1071.399,77.67043010752687,78.72150537634408,79.1924731182796,90.50752688172042,1.0510752688172147,1.522043010752725,12.837096774193554,29704.90178413214,30415.365472318976,30807.93564742675,29684.91301732393,710.4636881868355,1103.0338632946114,-19.98876680821195,9.143779951035066,9.957587158448685,10.078429075154444,10.031168419394223,0.8138072074136193,0.9346491241193782,0.8873884683591573,6.876118147959219,6.733662256748412,7.381212476901026,7.458872706539897,-0.14245589121080737,0.5050943289418068,0.5827545585806782,1584.635803085644,1345.4210701925426,1301.1699441482278,1399.4354506570792,-239.21473289310143,-283.4658589374162,-185.20035242856488,5.467727791578511,5.450961872657755,5.662193074796796,5.620112316983238,-0.01676591892075585,0.1944652832182845,0.15238452540472647,31.385070197132613,31.30784139784946,31.54405197132616,31.48548274193548,-0.07722879928315152,0.15898177419354553,0.1004125448028681,96.60721657580646,96.42426293387096,96.59784351451611,96.59784351451611,-0.182953641935498,-0.009373061290347096,-0.009373061290347096,0.0015625359003872,0.00087729632467335,0.000685053425483,0.0006293766067815,-0.00068523957571385,-0.0008774824749042,-0.0009331592936057,-0.0765571361621083,-0.04459214631944565,-0.0201691607377076,0.0442542893614365,0.03196498984266265,0.0563879754244007,0.12081142552354479,-0.030119899100018353,-0.07498524671197335,-0.0056113329229946,-0.0445780527309142,-0.044865347611954993,0.024508566177023752,-0.014458153630895844,1.55625,1.5968749999999998,1.3583333333333334,1.48125,0.04062499999999991,-0.19791666666666652,-0.07499999999999996,1766.4937508450562,1567.6250983377267,1876.051681532617,2136.8203307741555,-198.86865250732944,109.55793068756088,370.32657992909935,2.65,2.865625,2.8354166666666667,2.8354166666666667,0.21562500000000018,0.18541666666666679,0.18541666666666679
